 0.00000000e+00 -5.12000000e+02  0.00000000e+00  1.07794169e-05  0.00000000e+00  5.91938639e-05  0.00000000e+00  1.84199013e-07  0.00000000e+00 -7.81038312e-05  0.00000000e+00  1.58686737e+00  0.00000000e+00  2.13098379e-01 
 1.00000000e-11 -5.12000000e+02  1.00000000e-11  1.06081037e-06  1.00000000e-11 -6.18624991e-05  1.00000000e-11 -1.84617926e-05  1.00000000e-11  2.61732142e-06  1.00000000e-11  1.58679422e+00  1.00000000e-11  2.13085896e-01 
 2.00000000e-11 -5.12000000e+02  2.00000000e-11  5.92632508e-07  2.00000000e-11 -6.59368381e-05  2.00000000e-11 -1.98817519e-05  2.00000000e-11  2.95720582e-06  2.00000000e-11  1.58679379e+00  2.00000000e-11  2.13085767e-01 
 4.00000000e-11 -5.12000000e+02  4.00000000e-11  5.36626863e-07  4.00000000e-11 -7.18579906e-05  4.00000000e-11 -2.16439050e-05  4.00000000e-11  3.61202427e-06  4.00000000e-11  1.58679334e+00  4.00000000e-11  2.13085783e-01 
 8.00000000e-11 -5.12000000e+02  8.00000000e-11  4.32897426e-07  8.00000000e-11 -7.81428582e-05  8.00000000e-11 -2.25055369e-05  8.00000000e-11  1.90736179e-06  8.00000000e-11  1.58684698e+00  8.00000000e-11  2.13086219e-01 
 1.60000000e-10 -5.12000000e+02  1.60000000e-10  3.04108315e-07  1.60000000e-10 -8.11254407e-05  1.60000000e-10 -2.22899664e-05  1.60000000e-10  5.77904790e-07  1.60000000e-10  1.58692038e+00  1.60000000e-10  2.13087113e-01 
 3.01879663e-10 -5.12000000e+02  3.01879663e-10  3.18166588e-07  3.01879663e-10 -7.73058077e-05  3.01879663e-10 -2.01207125e-05  3.01879663e-10  6.90452431e-07  3.01879663e-10  1.58687235e+00  3.01879663e-10  2.13088560e-01 
 4.90522206e-10 -5.12000000e+02  4.90522206e-10  2.59169601e-07  4.90522206e-10 -4.34510706e-05  4.90522206e-10  1.29510967e-04  4.90522206e-10 -1.12922137e-06  4.90522206e-10  1.58693134e+00  4.90522206e-10  2.13090385e-01 
 6.05208576e-10 -5.12000000e+02  6.05208576e-10  3.27571937e-07  6.05208576e-10 -4.60770165e-06  6.05208576e-10  8.03940739e-04  6.05208576e-10 -5.70436073e-07  6.05208576e-10  1.58687114e+00  6.05208576e-10  2.13091379e-01 
 6.91919771e-10 -5.12000000e+02  6.91919771e-10  3.00255302e-07  6.91919771e-10  8.83186814e-06  6.91919771e-10  3.35179984e-03  6.91919771e-10  6.84419345e-07  6.91919771e-10  1.58692525e+00  6.91919771e-10  2.13092070e-01 
 7.39300916e-10 -5.12000000e+02  7.39300916e-10  4.02761317e-07  7.39300916e-10  2.21267340e-06  7.39300916e-10  4.02702585e-03  7.39300916e-10  1.61935087e-06  7.39300916e-10  1.58686436e+00  7.39300916e-10  2.13092200e-01 
 7.66789845e-10 -5.12000000e+02  7.66789845e-10  4.58053679e-07  7.66789845e-10  9.20441416e-06  7.66789845e-10  2.94766130e-04  7.66789845e-10  2.39576295e-06  7.66789845e-10  1.58690793e+00  7.66789845e-10  2.13092112e-01 
 7.92450628e-10 -5.12000000e+02  7.92450628e-10  5.11649190e-07  7.92450628e-10  1.27272994e-06  7.92450628e-10  9.84082133e-04  7.92450628e-10  2.80209119e-06  7.92450628e-10  1.58685731e+00  7.92450628e-10  2.13092186e-01 
 8.14874497e-10 -5.12000000e+02  8.14874497e-10  5.08428196e-07  8.14874497e-10  5.52735907e-06  8.14874497e-10  4.04063127e-04  8.14874497e-10  2.44381450e-06  8.14874497e-10  1.58690477e+00  8.14874497e-10  2.13092264e-01 
 8.32224900e-10 -5.12000000e+02  8.32224900e-10  6.19978436e-07  8.32224900e-10  6.62941938e-06  8.32224900e-10  1.05896748e-03  8.32224900e-10  4.58120137e-06  8.32224900e-10  1.58685227e+00  8.32224900e-10  2.13092271e-01 
 8.47603221e-10 -5.12000000e+02  8.47603221e-10  6.45213835e-07  8.47603221e-10  3.93333012e-05  8.47603221e-10  1.05481340e-03  8.47603221e-10  4.86028959e-06  8.47603221e-10  1.58689622e+00  8.47603221e-10  2.13092419e-01 
 8.62234908e-10 -5.12000000e+02  8.62234908e-10  6.72894506e-07  8.62234908e-10 -1.53941683e-04  8.62234908e-10  1.23815986e-03  8.62234908e-10  5.15749544e-06  8.62234908e-10  1.58685092e+00  8.62234908e-10  2.13092561e-01 
 8.74432900e-10 -5.12000000e+02  8.74432900e-10  7.54855665e-07  8.74432900e-10 -2.58835519e-04  8.74432900e-10  7.44501611e-04  8.74432900e-10  4.95774899e-06  8.74432900e-10  1.58689104e+00  8.74432900e-10  2.13092556e-01 
 8.87428519e-10 -5.12000000e+02  8.87428519e-10  7.21029833e-07  8.87428519e-10 -2.47681355e-04  8.87428519e-10  7.09814895e-04  8.87428519e-10  4.70381147e-06  8.87428519e-10  1.58685055e+00  8.87428519e-10  2.13092650e-01 
 9.02981264e-10 -5.12000000e+02  9.02981264e-10  6.56799897e-07  9.02981264e-10 -1.88435791e-04  9.02981264e-10  6.09706969e-04  9.02981264e-10  3.08322419e-06  9.02981264e-10  1.58690016e+00  9.02981264e-10  2.13092910e-01 
 9.19360096e-10 -5.12000000e+02  9.19360096e-10  6.20192519e-07  9.19360096e-10  9.36343524e-05  9.19360096e-10  8.23826593e-04  9.19360096e-10  4.83752353e-06  9.19360096e-10  1.58685620e+00  9.19360096e-10  2.13092668e-01 
 9.30545373e-10 -5.12000000e+02  9.30545373e-10  7.95102863e-07  9.30545373e-10  3.03996890e-04  9.30545373e-10  4.83245563e-04  9.30545373e-10  5.64646885e-06  9.30545373e-10  1.58689252e+00  9.30545373e-10  2.13092558e-01 
 9.41506727e-10 -5.12000000e+02  9.41506727e-10  8.09744866e-07  9.41506727e-10  4.25182967e-04  9.41506727e-10  4.43467196e-04  9.41506727e-10  3.68497488e-06  9.41506727e-10  1.58685065e+00  9.41506727e-10  2.13091951e-01 
 9.53399483e-10 -5.12000000e+02  9.53399483e-10  7.68112323e-07  9.53399483e-10  7.05862603e-04  9.53399483e-10  2.38595517e-04  9.53399483e-10  3.88115566e-06  9.53399483e-10  1.58689526e+00  9.53399483e-10  2.13091677e-01 
 9.68356104e-10 -5.12000000e+02  9.68356104e-10  6.66556887e-07  9.68356104e-10  1.78569165e-03  9.68356104e-10  3.23620793e-04  9.68356104e-10  4.70252412e-06  9.68356104e-10  1.58686838e+00  9.68356104e-10  2.13102332e-01 
 9.83148293e-10 -5.12000000e+02  9.83148293e-10  6.65464430e-07  9.83148293e-10  2.19241601e-03  9.83148293e-10  1.23670690e-04  9.83148293e-10  1.33632110e-07  9.83148293e-10  1.58704728e+00  9.83148293e-10  2.13205479e-01 
 9.93944949e-10 -5.12000000e+02  9.93944949e-10  8.08470284e-07  9.93944949e-10  8.74130716e-04  9.93944949e-10  2.52625009e-04  9.93944949e-10  8.27988184e-06  9.93944949e-10  1.58667771e+00  9.93944949e-10  2.13029480e-01 
 1.00593957e-09 -5.12000000e+02  1.00593957e-09  7.73178849e-07  1.00593957e-09  5.10426276e-04  1.00593957e-09  7.58798048e-05  1.00593957e-09  3.35701365e-06  1.00593957e-09  1.58689665e+00  1.00593957e-09  2.13135634e-01 
 1.02138803e-09 -5.12000000e+02  1.02138803e-09  6.45763888e-07  1.02138803e-09 -2.09629293e-04  1.02138803e-09  1.89739190e-04  1.02138803e-09  9.16914538e-06  1.02138803e-09  1.58672817e+00  1.02138803e-09  2.13034504e-01 
 1.03699453e-09 -5.12000000e+02  1.03699453e-09  6.51582980e-07  1.03699453e-09  1.87397850e-04  1.03699453e-09 -3.73560451e-06  1.03699453e-09  4.10486354e-06  1.03699453e-09  1.58694787e+00  1.03699453e-09  2.13145030e-01 
 1.06507053e-09 -5.12000000e+02  1.06507053e-09  4.73175188e-07  1.06507053e-09 -2.05475190e-04  1.06507053e-09  1.12607910e-04  1.06507053e-09  5.57001189e-06  1.06507053e-09  1.58677228e+00  1.06507053e-09  2.13036764e-01 
 1.10608999e-09 -5.12000000e+02  1.10608999e-09  4.04035910e-07  1.10608999e-09  2.03455652e-04  1.10608999e-09 -7.03525536e-05  1.10608999e-09  1.26049245e-06  1.10608999e-09  1.58693481e+00  1.10608999e-09  2.13134269e-01 
 1.18812892e-09 -5.12000000e+02  1.18812892e-09  3.26428681e-07  1.18812892e-09 -1.95622459e-04  1.18812892e-09  7.73386020e-05  1.18812892e-09  3.86436450e-06  1.18812892e-09  1.58679929e+00  1.18812892e-09  2.13035242e-01 
 1.30514483e-09 -5.12000000e+02  1.30514483e-09  3.03740090e-07  1.30514483e-09  2.05029674e-04  1.30514483e-09 -7.96763359e-05  1.30514483e-09 -4.19097373e-07  1.30514483e-09  1.58696609e+00  1.30514483e-09  2.13143111e-01 
 1.51266258e-09 -5.12000000e+02  1.51266258e-09  2.79726336e-07  1.51266258e-09 -1.82120988e-04  1.51266258e-09  7.76801743e-05  1.51266258e-09  2.52254909e-06  1.51266258e-09  1.58681481e+00  1.51266258e-09  2.13052007e-01 
 1.75624118e-09 -5.12000000e+02  1.75624118e-09  2.75397285e-07  1.75624118e-09  2.56121344e-04  1.75624118e-09 -8.01354488e-05  1.75624118e-09 -2.90608003e-06  1.75624118e-09  1.58707136e+00  1.75624118e-09  2.13252754e-01 
 1.98938129e-09 -5.12000000e+02  1.98938129e-09  2.76415799e-07  1.98938129e-09 -1.14737686e-04  1.98938129e-09  7.76614252e-05  1.98938129e-09  4.42236377e-07  1.98938129e-09  1.58698575e+00  1.98938129e-09  2.13231665e-01 
 2.22079959e-09 -5.12000000e+02  2.22079959e-09  2.76702039e-07  2.22079959e-09  2.81823616e-04  2.22079959e-09 -8.01219158e-05  2.22079959e-09 -5.35242218e-06  2.22079959e-09  1.58715845e+00  2.22079959e-09  2.13352045e-01 
 2.45828318e-09 -5.12000000e+02  2.45828318e-09  2.75849997e-07  2.45828318e-09 -1.27750311e-04  2.45828318e-09  7.80546408e-05  2.45828318e-09 -4.83122240e-07  2.45828318e-09  1.58697723e+00  2.45828318e-09  2.13246031e-01 
 2.70787930e-09 -5.12000000e+02  2.70787930e-09  2.74770547e-07  2.70787930e-09  2.64371447e-04  2.70787930e-09 -7.90165264e-05  2.70787930e-09 -4.95507711e-06  2.70787930e-09  1.58712614e+00  2.70787930e-09  2.13351314e-01 
 3.14638085e-09 -5.12000000e+02  3.14638085e-09  2.63609947e-07  3.14638085e-09 -1.46679503e-04  3.14638085e-09  8.42952869e-05  3.14638085e-09  3.32101536e-06  3.14638085e-09  1.58693649e+00  3.14638085e-09  2.13445163e-01 
 3.54263698e-09 -5.12000000e+02  3.54263698e-09  2.65272386e-07  3.54263698e-09  2.45675107e-04  3.54263698e-09 -5.65056570e-05  3.54263698e-09  3.15370723e-05  3.54263698e-09  1.58706929e+00  3.54263698e-09  2.16599267e-01 
 3.93323219e-09 -5.12000000e+02  3.93323219e-09  2.65431461e-07  3.93323219e-09 -1.41526642e-04  3.93323219e-09  1.42478248e-04  3.93323219e-09  9.47936468e-05  3.93323219e-09  1.58687512e+00  3.93323219e-09  2.24848083e-01 
 4.31028482e-09 -5.12000000e+02  4.31028482e-09  2.66132401e-07  4.31028482e-09  2.48275331e-04  4.31028482e-09  3.39328799e-05  4.31028482e-09  8.33321075e-05  4.31028482e-09  1.58655949e+00  4.31028482e-09  2.34218768e-01 
 4.54640765e-09 -5.12000000e+02  4.54640765e-09  2.76054082e-07  4.54640765e-09 -1.61418116e-04  4.54640765e-09  3.59013016e-04  4.54640765e-09  7.82046138e-05  4.54640765e-09  1.58616249e+00  4.54640765e-09  2.40301741e-01 
 4.71893311e-09 -5.12000000e+02  4.71893311e-09  2.86076585e-07  4.71893311e-09  2.34840170e-04  4.71893311e-09  4.30810192e-04  4.71893311e-09  5.50382422e-05  4.71893311e-09  1.58638352e+00  4.71893311e-09  2.44265633e-01 
 4.82240752e-09 -5.12000000e+02  4.82240752e-09  3.10536167e-07  4.82240752e-09 -1.63719396e-04  4.82240752e-09  1.05768519e-03  4.82240752e-09  5.13062280e-05  4.82240752e-09  1.58621853e+00  4.82240752e-09  2.46096176e-01 
 4.88467116e-09 -5.12000000e+02  4.88467116e-09  3.50725553e-07  4.88467116e-09  2.35768874e-04  4.88467116e-09 -3.66851052e-05  4.88467116e-09  3.73679229e-05  4.88467116e-09  1.58640227e+00  4.88467116e-09  2.47284231e-01 
 4.94263594e-09 -5.12000000e+02  4.94263594e-09  3.58860157e-07  4.94263594e-09 -1.59058736e-04  4.94263594e-09  3.53712524e-04  4.94263594e-09  4.09127567e-05  4.94263594e-09  1.58624004e+00  4.94263594e-09  2.48058726e-01 
 4.98761929e-09 -5.12000000e+02  4.98761929e-09  3.89079179e-07  4.98761929e-09  2.40242835e-04  4.98761929e-09 -2.07158959e-05  4.98761929e-09  2.39317812e-05  4.98761929e-09  1.58640509e+00  4.98761929e-09  2.48849907e-01 
 5.03540598e-09 -5.12000000e+02  5.03540598e-09  3.82505619e-07  5.03540598e-09 -1.51101021e-04  5.03540598e-09  2.63385264e-04  5.03540598e-09  3.60539841e-05  5.03540598e-09  1.58624631e+00  5.03540598e-09  2.49396103e-01 
 5.09447670e-09 -5.12000000e+02  5.09447670e-09  3.55906553e-07  5.09447670e-09  2.50434236e-04  5.09447670e-09 -3.43679870e-05  5.09447670e-09  1.87163890e-05  5.09447670e-09  1.58639084e+00  5.09447670e-09  2.50224847e-01 
 5.16702860e-09 -5.12000000e+02  5.16702860e-09  3.37373524e-07  5.16702860e-09 -1.36780127e-04  5.16702860e-09  2.31549635e-04  5.16702860e-09  1.97897387e-05  5.16702860e-09  1.58620900e+00  5.16702860e-09  2.50976952e-01 
 5.27288594e-09 -5.12000000e+02  5.27288594e-09  3.08695538e-07  5.27288594e-09  2.99715333e-04  5.27288594e-09 -4.68969532e-05  5.27288594e-09  1.23790952e-05  5.27288594e-09  1.58624883e+00  5.27288594e-09  2.52127258e-01 
 5.32489964e-09 -5.12000000e+02  5.32489964e-09  3.70954523e-07  5.32489964e-09 -8.37857184e-05  5.32489964e-09  2.09496449e-04  5.32489964e-09  1.69790040e-05  5.32489964e-09  1.58600894e+00  5.32489964e-09  2.52510918e-01 
 5.39263178e-09 -5.12000000e+02  5.39263178e-09  3.43227389e-07  5.39263178e-09  4.66495934e-04  5.39263178e-09 -5.02004840e-05  5.39263178e-09  7.54402590e-06  5.39263178e-09  1.58595343e+00  5.39263178e-09  2.53141724e-01 
 5.42382015e-09 -5.12000000e+02  5.42382015e-09  4.48545020e-07  5.42382015e-09  1.98973522e-04  5.42382015e-09  2.00958552e-04  5.42382015e-09  1.24302766e-05  5.42382015e-09  1.58571648e+00  5.42382015e-09  2.53361087e-01 
 5.46026412e-09 -5.12000000e+02  5.46026412e-09  4.25587231e-07  5.46026412e-09  6.79279258e-04  5.46026412e-09 -9.00768946e-05  5.46026412e-09 -1.61541907e-06  5.46026412e-09  1.58567342e+00  5.46026412e-09  2.53648110e-01 
 5.48158500e-09 -5.12000000e+02  5.48158500e-09  5.36739228e-07  5.48158500e-09  3.43705304e-04  5.48158500e-09  5.12289486e-05  5.48158500e-09  5.05114611e-06  5.48158500e-09  1.58546735e+00  5.48158500e-09  2.53745693e-01 
 5.50947524e-09 -5.12000000e+02  5.50947524e-09  4.81096415e-07  5.50947524e-09  6.69356157e-04  5.50947524e-09  8.48857256e-05  5.50947524e-09 -9.42917032e-06  5.50947524e-09  1.58539994e+00  5.50947524e-09  2.53989018e-01 
 5.52882665e-09 -5.12000000e+02  5.52882665e-09  5.65377061e-07  5.52882665e-09  1.42651992e-04  5.52882665e-09  7.15343987e-04  5.52882665e-09  5.86400457e-06  5.52882665e-09  1.58518803e+00  5.52882665e-09  2.54071677e-01 
 5.54868565e-09 -5.12000000e+02  5.54868565e-09  5.66807125e-07  5.54868565e-09  4.45187577e-04  5.54868565e-09  4.66387101e-04  5.54868565e-09 -1.19709376e-05  5.54868565e-09  1.58515721e+00  5.54868565e-09  2.54262656e-01 
 5.56981858e-09 -5.12000000e+02  5.56981858e-09  5.46434659e-07  5.56981858e-09 -1.40213701e-04  5.56981858e-09  1.05002340e-03  5.56981858e-09  1.05223157e-07  5.56981858e-09  1.58487505e+00  5.56981858e-09  2.54350714e-01 
 5.58732708e-09 -5.12000000e+02  5.58732708e-09  5.99135613e-07  5.58732708e-09  2.81308798e-04  5.58732708e-09  9.39655009e-04  5.58732708e-09 -1.70489744e-05  5.58732708e-09  1.58485462e+00  5.58732708e-09  2.54502547e-01 
 5.60623098e-09 -5.12000000e+02  5.60623098e-09  5.87142719e-07  5.60623098e-09 -1.64691588e-04  5.60623098e-09  1.53896183e-03  5.60623098e-09  2.07046297e-06  5.60623098e-09  1.58457226e+00  5.60623098e-09  2.54557170e-01 
 5.62945665e-09 -5.12000000e+02  5.62945665e-09  5.10894506e-07  5.62945665e-09  2.57190494e-04  5.62945665e-09  2.50244398e-03  5.62945665e-09 -2.30041074e-05  5.62945665e-09  1.58405319e+00  5.62945665e-09  2.54730105e-01 
 5.65382286e-09 -5.12000000e+02  5.65382286e-09  5.20688218e-07  5.65382286e-09 -1.79331155e-04  5.65382286e-09  4.05658756e-03  5.65382286e-09 -7.32955737e-06  5.65382286e-09  1.58366199e+00  5.65382286e-09  2.54793002e-01 
 5.66957706e-09 -5.12000000e+02  5.66957706e-09  6.08464737e-07  5.66957706e-09  2.51342114e-04  5.66957706e-09  1.13478981e-03  5.66957706e-09 -3.41455985e-05  5.66957706e-09  1.58376632e+00  5.66957706e-09  2.54886798e-01 
 5.68574439e-09 -5.12000000e+02  5.68574439e-09  6.84086606e-07  5.68574439e-09 -1.80323336e-04  5.68574439e-09  9.32087762e-04  5.68574439e-09 -1.34803883e-05  5.68574439e-09  1.58349695e+00  5.68574439e-09  2.54946520e-01 
 5.70291454e-09 -5.12000000e+02  5.70291454e-09  5.58913031e-07  5.70291454e-09  2.48477184e-04  5.70291454e-09 -2.63329558e-05  5.70291454e-09 -3.71147537e-05  5.70291454e-09  1.58354114e+00  5.70291454e-09  2.55070679e-01 
 5.72431356e-09 -5.12000000e+02  5.72431356e-09  5.83342141e-07  5.72431356e-09 -1.79692437e-04  5.72431356e-09  2.22719438e-04  5.72431356e-09 -1.95114434e-05  5.72431356e-09  1.58267512e+00  5.72431356e-09  2.55126904e-01 
 5.74739470e-09 -5.12000000e+02  5.74739470e-09  5.08682519e-07  5.74739470e-09  2.45904784e-04  5.74739470e-09 -7.76247961e-05  5.74739470e-09 -4.92328656e-05  5.74739470e-09  1.58259435e+00  5.74739470e-09  2.55256765e-01 
 5.79355699e-09 -5.12000000e+02  5.79355699e-09  3.81448881e-07  5.79355699e-09 -1.79463097e-04  5.79355699e-09  1.73562425e-04  5.79355699e-09 -3.00576963e-05  5.79355699e-09  1.58179102e+00  5.79355699e-09  2.55386789e-01 
 5.88588156e-09 -5.12000000e+02  5.88588156e-09  3.34127311e-07  5.88588156e-09  2.44205862e-04  5.88588156e-09 -8.73152290e-05  5.88588156e-09 -7.47604919e-05  5.88588156e-09  1.58014345e+00  5.88588156e-09  2.55800522e-01 
 6.06136615e-09 -5.12000000e+02  6.06136615e-09  2.63804593e-07  6.06136615e-09 -1.79819957e-04  6.06136615e-09  1.54248575e-04  6.06136615e-09 -7.83298783e-05  6.06136615e-09  1.57654489e+00  6.06136615e-09  2.56297598e-01 
 6.37413432e-09 -5.12000000e+02  6.37413432e-09  2.94675091e-07  6.37413432e-09  2.46332823e-04  6.37413432e-09 -1.09603857e-04  6.37413432e-09 -1.46960072e-04  6.37413432e-09  1.57103228e+00  6.37413432e-09  2.57035802e-01 
 6.70659219e-09 -5.12000000e+02  6.70659219e-09  2.39515616e-07  6.70659219e-09 -1.74647798e-04  6.70659219e-09  1.31936047e-04  6.70659219e-09 -1.22620289e-04  6.70659219e-09  1.56753614e+00  6.70659219e-09  2.57499211e-01 
 7.02722509e-09 -5.12000000e+02  7.02722509e-09  3.01723515e-07  7.02722509e-09  2.50088002e-04  7.02722509e-09 -1.21631533e-04  7.02722509e-09 -1.30504746e-04  7.02722509e-09  1.56561682e+00  7.02722509e-09  2.57875248e-01 
 7.41013936e-09 -5.12000000e+02  7.41013936e-09  2.29960154e-07  7.41013936e-09 -1.73064746e-04  7.41013936e-09  1.25029423e-04  7.41013936e-09 -5.24946763e-05  7.41013936e-09  1.56223332e+00  7.41013936e-09  2.58137215e-01 
 7.81008420e-09 -5.12000000e+02  7.81008420e-09  3.04029245e-07  7.81008420e-09  2.51989186e-04  7.81008420e-09 -1.24067304e-04  7.81008420e-09 -5.99431324e-05  7.81008420e-09  1.55779123e+00  7.81008420e-09  2.58390456e-01 
 8.40257855e-09 -5.12000000e+02  8.40257855e-09  2.19001151e-07  8.40257855e-09 -1.67995438e-04  8.40257855e-09  1.23593595e-04  8.40257855e-09 -1.25177120e-06  8.40257855e-09  1.55204024e+00  8.40257855e-09  2.58591483e-01 
 9.04204637e-09 -5.12000000e+02  9.04204637e-09  3.01956979e-07  9.04204637e-09  2.73041499e-04  9.04204637e-09 -1.24206933e-04  9.04204637e-09 -1.54628731e-05  9.04204637e-09  1.55008146e+00  9.04204637e-09  2.58741574e-01 
 9.52388948e-09 -5.12000000e+02  9.52388948e-09  2.16804450e-07  9.52388948e-09 -1.31170385e-04  9.52388948e-09  1.23187980e-04  9.52388948e-09  2.80537232e-05  9.52388948e-09  1.55049950e+00  9.52388948e-09  2.58735794e-01 
 1.00000000e-08 -5.12000000e+02  1.00000000e-08  3.10759779e-07  1.00000000e-08  2.92692370e-04  1.00000000e-08 -1.23954393e-04  1.00000000e-08 -6.33804316e-06  1.00000000e-08  1.55171197e+00  1.00000000e-08  2.58724839e-01 
 1.00381624e-08 -5.12000000e+02  1.00381624e-08  3.23336420e-07  1.00381624e-08  7.98130901e-05  1.00381624e-08 -2.09156793e-07  1.00381624e-08  1.26807129e-05  1.00381624e-08  1.55173957e+00  1.00381624e-08  2.58707716e-01 
 1.01144871e-08 -5.12000000e+02  1.01144871e-08  3.41570051e-07  1.01144871e-08  7.75150676e-05  1.01144871e-08  4.98594426e-07  1.01144871e-08  1.24061807e-05  1.01144871e-08  1.55188965e+00  1.01144871e-08  2.58702210e-01 
 1.02256900e-08 -5.12000000e+02  1.02256900e-08  2.97149953e-07  1.02256900e-08  7.77341416e-05  1.02256900e-08 -1.78995032e-07  1.02256900e-08  1.33460729e-05  1.02256900e-08  1.55221401e+00  1.02256900e-08  2.58674726e-01 
 1.03652649e-08 -5.12000000e+02  1.03652649e-08  3.04041613e-07  1.03652649e-08  7.44954063e-05  1.03652649e-08  4.73360504e-07  1.03652649e-08  1.19162167e-05  1.03652649e-08  1.55257867e+00  1.03652649e-08  2.58666877e-01 
 1.04658264e-08 -5.12000000e+02  1.04658264e-08  3.02945739e-07  1.04658264e-08  6.97205587e-05  1.04658264e-08 -1.32986916e-07  1.04658264e-08  1.18171361e-05  1.04658264e-08  1.55284698e+00  1.04658264e-08  2.58624920e-01 
 1.05883079e-08 -5.12000000e+02  1.05883079e-08  3.10558563e-07  1.05883079e-08  7.09337596e-05  1.05883079e-08  4.23919634e-07  1.05883079e-08  1.14179828e-05  1.05883079e-08  1.55315446e+00  1.05883079e-08  2.58610495e-01 
 1.07558879e-08 -5.12000000e+02  1.07558879e-08  2.77742915e-07  1.07558879e-08  5.64440631e-05  1.07558879e-08 -7.42157103e-08  1.07558879e-08  1.35441150e-05  1.07558879e-08  1.55357203e+00  1.07558879e-08  2.58544906e-01 
 1.09350361e-08 -5.12000000e+02  1.09350361e-08  2.94058701e-07  1.09350361e-08  5.58630566e-05  1.09350361e-08  3.82733682e-07  1.09350361e-08  9.65205205e-06  1.09350361e-08  1.55403757e+00  1.09350361e-08  2.58479928e-01 
 1.10903840e-08 -5.12000000e+02  1.10903840e-08  2.80824336e-07  1.10903840e-08  9.28312726e-05  1.10903840e-08  1.08172074e-05  1.10903840e-08  1.21690053e-05  1.10903840e-08  1.55439707e+00  1.10903840e-08  2.58400390e-01 
 1.12632390e-08 -5.12000000e+02  1.12632390e-08  2.95230455e-07  1.12632390e-08  1.03649778e-04  1.12632390e-08  9.42766682e-06  1.12632390e-08  7.37953966e-06  1.12632390e-08  1.55483107e+00  1.12632390e-08  2.58322799e-01 
 1.13480024e-08 -5.12000000e+02  1.13480024e-08  3.14854021e-07  1.13480024e-08  1.55217036e-04  1.13480024e-08  2.41629547e-05  1.13480024e-08  1.05586530e-05  1.13480024e-08  1.55501483e+00  1.13480024e-08  2.58274858e-01 
 1.14423670e-08 -5.12000000e+02  1.14423670e-08  3.25609701e-07  1.14423670e-08  2.18804738e-04  1.14423670e-08  6.33749100e-05  1.14423670e-08  9.36328354e-06  1.14423670e-08  1.55524422e+00  1.14423670e-08  2.58237089e-01 
 1.15094923e-08 -5.12000000e+02  1.15094923e-08  3.34754443e-07  1.15094923e-08  2.16845858e-04  1.15094923e-08  1.09038329e-04  1.15094923e-08  1.03814179e-05  1.15094923e-08  1.55538479e+00  1.15094923e-08  2.58191447e-01 
 1.15529013e-08 -5.12000000e+02  1.15529013e-08  4.02978803e-07  1.15529013e-08  1.14911074e-04  1.15529013e-08  1.05758751e-04  1.15529013e-08  5.19263507e-06  1.15529013e-08  1.55548011e+00  1.15529013e-08  2.58181179e-01 
 1.16058548e-08 -5.12000000e+02  1.16058548e-08  3.61724473e-07  1.16058548e-08  1.38163626e-04  1.16058548e-08  8.53419652e-05  1.16058548e-08  4.27064168e-06  1.16058548e-08  1.55560964e+00  1.16058548e-08  2.58146770e-01 
 1.16439935e-08 -5.12000000e+02  1.16439935e-08  4.19821263e-07  1.16439935e-08  1.54834247e-04  1.16439935e-08  1.14886069e-04  1.16439935e-08  5.67782450e-06  1.16439935e-08  1.55569854e+00  1.16439935e-08  2.58148594e-01 
 1.16727449e-08 -5.12000000e+02  1.16727449e-08  4.63347541e-07  1.16727449e-08  2.98190224e-04  1.16727449e-08  4.52141201e-04  1.16727449e-08  1.04274659e-05  1.16727449e-08  1.55576398e+00  1.16727449e-08  2.58138075e-01 
 1.17003809e-08 -5.12000000e+02  1.17003809e-08  4.83696323e-07  1.17003809e-08  4.45445274e-04  1.17003809e-08  9.98342284e-04  1.17003809e-08  1.57789453e-05  1.17003809e-08  1.55583379e+00  1.17003809e-08  2.58128633e-01 
 1.17223337e-08 -5.12000000e+02  1.17223337e-08  5.28330957e-07  1.17223337e-08  5.85210559e-04  1.17223337e-08  1.59408761e-03  1.17223337e-08  5.52895441e-06  1.17223337e-08  1.55586629e+00  1.17223337e-08  2.58111517e-01 
 1.17357151e-08 -5.12000000e+02  1.17357151e-08  7.03538938e-07  1.17357151e-08  3.64089897e-04  1.17357151e-08  1.52819509e-03  1.17357151e-08  5.75399611e-08  1.17357151e-08  1.55585888e+00  1.17357151e-08  2.58121129e-01 
 1.17521717e-08 -5.12000000e+02  1.17521717e-08  6.39789028e-07  1.17521717e-08  3.14857731e-04  1.17521717e-08  6.06874712e-04  1.17521717e-08 -3.99048045e-06  1.17521717e-08  1.55590703e+00  1.17521717e-08  2.58097489e-01 
 1.17692109e-08 -5.12000000e+02  1.17692109e-08  6.00979382e-07  1.17692109e-08  2.84726380e-04  1.17692109e-08  2.78205178e-03  1.17692109e-08  9.77395170e-06  1.17692109e-08  1.55595915e+00  1.17692109e-08  2.58095030e-01 
 1.17859395e-08 -5.12000000e+02  1.17859395e-08  6.34137929e-07  1.17859395e-08  3.68081629e-04  1.17859395e-08  4.35224858e-03  1.17859395e-08  1.33194674e-06  1.17859395e-08  1.55600254e+00  1.17859395e-08  2.58083103e-01 
 1.17984185e-08 -5.12000000e+02  1.17984185e-08  7.22866724e-07  1.17984185e-08  3.15420893e-04  1.17984185e-08  2.00034416e-03  1.17984185e-08  1.55787075e-06  1.17984185e-08  1.55601091e+00  1.17984185e-08  2.58086861e-01 
 1.18121189e-08 -5.12000000e+02  1.18121189e-08  7.21186954e-07  1.18121189e-08  3.32990497e-04  1.18121189e-08  2.06327175e-03  1.18121189e-08 -1.20348627e-06  1.18121189e-08  1.55604435e+00  1.18121189e-08  2.58070711e-01 
 1.18250300e-08 -5.12000000e+02  1.18250300e-08  7.06749706e-07  1.18250300e-08  2.65723479e-04  1.18250300e-08  2.31372026e-03  1.18250300e-08 -5.13876916e-06  1.18250300e-08  1.55605887e+00  1.18250300e-08  2.58064137e-01 
 1.18375405e-08 -5.12000000e+02  1.18375405e-08  7.57863825e-07  1.18375405e-08  2.61044616e-04  1.18375405e-08  1.65362206e-03  1.18375405e-08  1.43082358e-05  1.18375405e-08  1.55610205e+00  1.18375405e-08  2.58059822e-01 
 1.18488469e-08 -5.12000000e+02  1.18488469e-08  7.74438995e-07  1.18488469e-08  2.02848139e-04  1.18488469e-08  3.69958877e-04  1.18488469e-08  1.30400086e-05  1.18488469e-08  1.55612503e+00  1.18488469e-08  2.58068296e-01 
 1.18611494e-08 -5.12000000e+02  1.18611494e-08  7.67723679e-07  1.18611494e-08  2.38468072e-04  1.18611494e-08  9.11073395e-04  1.18611494e-08  1.25339545e-07  1.18611494e-08  1.55615396e+00  1.18611494e-08  2.58044868e-01 
 1.18778293e-08 -5.12000000e+02  1.18778293e-08  6.11346130e-07  1.18778293e-08  1.89833402e-04  1.18778293e-08  4.56148440e-04  1.18778293e-08  8.25132030e-06  1.18778293e-08  1.55620950e+00  1.18778293e-08  2.58031884e-01 
 1.18961970e-08 -5.12000000e+02  1.18961970e-08  5.98244761e-07  1.18961970e-08  2.46679198e-04  1.18961970e-08  8.08506034e-04  1.18961970e-08  5.32538319e-06  1.18961970e-08  1.55626164e+00  1.18961970e-08  2.58021616e-01 
 1.19141028e-08 -5.12000000e+02  1.19141028e-08  5.90119199e-07  1.19141028e-08  2.40512150e-04  1.19141028e-08  1.06377921e-03  1.19141028e-08  5.45601887e-06  1.19141028e-08  1.55631011e+00  1.19141028e-08  2.58013170e-01 
 1.19386574e-08 -5.12000000e+02  1.19386574e-08  5.12443268e-07  1.19386574e-08  3.47535353e-04  1.19386574e-08  1.65273644e-03  1.19386574e-08  1.16667205e-05  1.19386574e-08  1.55638990e+00  1.19386574e-08  2.57984597e-01 
 1.19609323e-08 -5.12000000e+02  1.19609323e-08  5.23777405e-07  1.19609323e-08  3.39454403e-04  1.19609323e-08  2.70630568e-03  1.19609323e-08  1.39730372e-05  1.19609323e-08  1.55643217e+00  1.19609323e-08  2.57932436e-01 
 1.19803158e-08 -5.12000000e+02  1.19803158e-08  5.75411401e-07  1.19803158e-08  3.44901366e-04  1.19803158e-08  2.13435479e-03  1.19803158e-08  1.65326007e-05  1.19803158e-08  1.55645996e+00  1.19803158e-08  2.57901536e-01 
 1.19940154e-08 -5.12000000e+02  1.19940154e-08  6.96789190e-07  1.19940154e-08  3.11081229e-04  1.19940154e-08 -1.64660743e-04  1.19940154e-08  2.06061196e-05  1.19940154e-08  1.55645842e+00  1.19940154e-08  2.57910419e-01 
 1.20094224e-08 -5.12000000e+02  1.20094224e-08  6.29850908e-07  1.20094224e-08  2.88578241e-04  1.20094224e-08  6.45601173e-04  1.20094224e-08  1.94903605e-05  1.20094224e-08  1.55648939e+00  1.20094224e-08  2.57883852e-01 
 1.20292997e-08 -5.12000000e+02  1.20292997e-08  6.36505704e-07  1.20292997e-08  2.73017740e-04  1.20292997e-08 -2.94265518e-04  1.20292997e-08  1.85634687e-05  1.20292997e-08  1.55654150e+00  1.20292997e-08  2.57829742e-01 
 1.20498845e-08 -5.12000000e+02  1.20498845e-08  4.10712158e-07  1.20498845e-08  2.45711588e-04  1.20498845e-08  3.05502883e-04  1.20498845e-08  3.10842491e-06  1.20498845e-08  1.55658370e+00  1.20498845e-08  2.57803287e-01 
 1.20738634e-08 -5.12000000e+02  1.20738634e-08  7.20393571e-07  1.20738634e-08  1.02069900e-04  1.20738634e-08 -2.50418224e-04  1.20738634e-08  2.73359880e-05  1.20738634e-08  1.55665235e+00  1.20738634e-08  2.57808086e-01 
 1.20960707e-08 -5.12000000e+02  1.20960707e-08  2.48438200e-07  1.20960707e-08  8.93894396e-05  1.20960707e-08  2.24282643e-04  1.20960707e-08  1.36222772e-05  1.20960707e-08  1.55668703e+00  1.20960707e-08  2.57791489e-01 
 1.21213109e-08 -5.12000000e+02  1.21213109e-08  8.33552145e-07  1.21213109e-08  2.96253722e-05  1.21213109e-08 -2.02775688e-04  1.21213109e-08  1.87815879e-05  1.21213109e-08  1.55673979e+00  1.21213109e-08  2.57791165e-01 
 1.21535009e-08 -5.12000000e+02  1.21535009e-08  7.57842908e-08  1.21535009e-08  4.87758579e-05  1.21535009e-08  1.91179756e-04  1.21535009e-08  1.67506481e-06  1.21535009e-08  1.55682231e+00  1.21535009e-08  2.57747761e-01 
 1.22002247e-08 -5.12000000e+02  1.22002247e-08  7.73939699e-07  1.22002247e-08  1.10353442e-07  1.22002247e-08 -1.83349192e-04  1.22002247e-08  2.22084235e-05  1.22002247e-08  1.55695378e+00  1.22002247e-08  2.57743051e-01 
 1.22890680e-08 -5.12000000e+02  1.22890680e-08 -7.78454016e-08  1.22890680e-08  2.82803005e-05  1.22890680e-08  1.80588076e-04  1.22890680e-08 -1.09136785e-06  1.22890680e-08  1.55715662e+00  1.22890680e-08  2.57663300e-01 
 1.23721475e-08 -5.12000000e+02  1.23721475e-08  7.33771912e-07  1.23721475e-08 -8.76089554e-06  1.23721475e-08 -1.76817291e-04  1.23721475e-08  2.25056386e-05  1.23721475e-08  1.55734678e+00  1.23721475e-08  2.57622172e-01 
 1.25124499e-08 -5.12000000e+02  1.25124499e-08 -1.18419263e-07  1.25124499e-08  2.68352080e-05  1.25124499e-08  1.75393323e-04  1.25124499e-08 -1.23416164e-06  1.25124499e-08  1.55763626e+00  1.25124499e-08  2.57483001e-01 
 1.27056945e-08 -5.12000000e+02  1.27056945e-08  6.98544905e-07  1.27056945e-08 -9.18557098e-06  1.27056945e-08 -1.73688445e-04  1.27056945e-08  1.90177090e-05  1.27056945e-08  1.55798759e+00  1.27056945e-08  2.57321081e-01 
 1.30921835e-08 -5.12000000e+02  1.30921835e-08 -1.52341026e-07  1.30921835e-08  2.63681572e-05  1.30921835e-08  1.73466882e-04  1.30921835e-08 -4.67414694e-06  1.30921835e-08  1.55870309e+00  1.30921835e-08  2.56917707e-01 
 1.38651617e-08 -5.12000000e+02  1.38651617e-08  6.76196858e-07  1.38651617e-08 -9.86399697e-06  1.38651617e-08 -1.72817513e-04  1.38651617e-08  1.68962578e-05  1.38651617e-08  1.56006231e+00  1.38651617e-08  2.56055410e-01 
 1.48651617e-08 -5.12000000e+02  1.48651617e-08 -1.63914953e-07  1.48651617e-08  2.56333082e-05  1.48651617e-08  1.72882293e-04  1.48651617e-08 -7.17323243e-06  1.48651617e-08  1.56168037e+00  1.48651617e-08  2.54611130e-01 
 1.58651617e-08 -5.12000000e+02  1.58651617e-08  6.75531983e-07  1.58651617e-08 -1.05328937e-05  1.58651617e-08 -1.72354392e-04  1.58651617e-08  1.42629533e-05  1.58651617e-08  1.56311449e+00  1.58651617e-08  2.52985890e-01 
 1.68651617e-08 -5.12000000e+02  1.68651617e-08 -1.65099061e-07  1.68651617e-08  2.50927457e-05  1.68651617e-08  1.72421597e-04  1.68651617e-08 -9.42302173e-06  1.68651617e-08  1.56440797e+00  1.68651617e-08  2.51128712e-01 
 1.78651617e-08 -5.12000000e+02  1.78651617e-08  6.76692012e-07  1.78651617e-08 -1.09774813e-05  1.78651617e-08 -1.71909545e-04  1.78651617e-08  1.25049884e-05  1.78651617e-08  1.56557756e+00  1.78651617e-08  2.49240153e-01 
 1.88651617e-08 -5.12000000e+02  1.88651617e-08 -1.66235290e-07  1.88651617e-08  2.47007898e-05  1.88651617e-08  1.71953337e-04  1.88651617e-08 -1.07371138e-05  1.88651617e-08  1.56662348e+00  1.88651617e-08  2.47262683e-01 
 1.98651617e-08 -5.12000000e+02  1.98651617e-08  6.77804531e-07  1.98651617e-08 -1.13379114e-05  1.98651617e-08 -1.71462716e-04  1.98651617e-08  1.17568143e-05  1.98651617e-08  1.56758568e+00  1.98651617e-08  2.45363466e-01 
 2.01714172e-08 -5.12000000e+02  2.01714172e-08 -1.53954514e-07  2.01714172e-08 -6.12550277e-05  2.01714172e-08  1.48301538e-04  2.01714172e-08 -1.06207081e-05  2.01714172e-08  1.56785454e+00  2.01714172e-08  2.44767466e-01 
 2.04215143e-08 -5.12000000e+02  2.04215143e-08  7.00361032e-07  2.04215143e-08 -6.84262395e-05  2.04215143e-08 -1.11289045e-04  2.04215143e-08  1.19162912e-05  2.04215143e-08  1.56807884e+00  2.04215143e-08  2.44322660e-01 
 2.05258714e-08 -5.12000000e+02  2.05258714e-08 -1.18819204e-07  2.05258714e-08 -1.37925413e-05  2.05258714e-08  3.31693352e-04  2.05258714e-08 -1.05756225e-05  2.05258714e-08  1.56816070e+00  2.05258714e-08  2.44118296e-01 
 2.06143879e-08 -5.12000000e+02  2.06143879e-08  7.52546961e-07  2.06143879e-08 -6.70771256e-06  2.06143879e-08  6.13839968e-04  2.06143879e-08  1.30853058e-05  2.06143879e-08  1.56824791e+00  2.06143879e-08  2.43982408e-01 
 2.06754960e-08 -5.12000000e+02  2.06754960e-08 -8.00335594e-08  2.06754960e-08  2.60197798e-05  2.06754960e-08  2.49831598e-03  2.06754960e-08 -1.06009088e-05  2.06754960e-08  1.56830453e+00  2.06754960e-08  2.43847455e-01 
 2.07120853e-08 -5.12000000e+02  2.07120853e-08  8.49866030e-07  2.07120853e-08  9.68984195e-06  2.07120853e-08  4.43908591e-03  2.07120853e-08  1.31517058e-05  2.07120853e-08  1.56833854e+00  2.07120853e-08  2.43795954e-01 
 2.07326732e-08 -5.12000000e+02  2.07326732e-08  1.39097860e-07  2.07326732e-08  3.39237543e-05  2.07326732e-08  2.96671168e-03  2.07326732e-08 -6.38714229e-06  2.07326732e-08  1.56836460e+00  2.07326732e-08  2.43732402e-01 
 2.07493210e-08 -5.12000000e+02  2.07493210e-08  1.00063822e-06  2.07493210e-08  1.41975787e-05  2.07493210e-08  8.83054787e-04  2.07493210e-08  2.19337710e-05  2.07493210e-08  1.56835303e+00  2.07493210e-08  2.43733871e-01 
 2.07660349e-08 -5.12000000e+02  2.07660349e-08  2.75753291e-07  2.07660349e-08  3.72314440e-05  2.07660349e-08  4.04540400e-04  2.07660349e-08 -4.36371345e-06  2.07660349e-08  1.56837227e+00  2.07660349e-08  2.43698894e-01 
 2.07832869e-08 -5.12000000e+02  2.07832869e-08  9.22300473e-07  2.07832869e-08  1.98538725e-05  2.07832869e-08  4.27077098e-04  2.07832869e-08  1.64657150e-05  2.07832869e-08  1.56837727e+00  2.07832869e-08  2.43675005e-01 
 2.07971042e-08 -5.12000000e+02  2.07971042e-08  4.20256781e-07  2.07971042e-08  4.32254195e-05  2.07971042e-08  1.02493130e-04  2.07971042e-08 -4.53064211e-06  2.07971042e-08  1.56839015e+00  2.07971042e-08  2.43620139e-01 
 2.08141084e-08 -5.12000000e+02  2.08141084e-08  8.65382909e-07  2.08141084e-08  2.67555734e-05  2.08141084e-08  2.67546794e-04  2.08141084e-08  2.38515650e-05  2.08141084e-08  1.56840631e+00  2.08141084e-08  2.43599646e-01 
 2.08337801e-08 -5.12000000e+02  2.08337801e-08  3.39156724e-07  2.08337801e-08  5.15178048e-05  2.08337801e-08  1.09532000e-05  2.08337801e-08  7.07547429e-07  2.08337801e-08  1.56842219e+00  2.08337801e-08  2.43561748e-01 
 2.08518080e-08 -5.12000000e+02  2.08518080e-08  7.96890464e-07  2.08518080e-08  3.26288471e-05  2.08518080e-08  4.38298998e-04  2.08518080e-08  2.22541589e-05  2.08518080e-08  1.56844067e+00  2.08518080e-08  2.43531895e-01 
 2.08752301e-08 -5.12000000e+02  2.08752301e-08  3.31628197e-07  2.08752301e-08  4.94340963e-05  2.08752301e-08  1.97218854e-04  2.08752301e-08 -5.17253020e-06  2.08752301e-08  1.56845018e+00  2.08752301e-08  2.43449096e-01 
 2.08972385e-08 -5.12000000e+02  2.08972385e-08  7.00204527e-07  2.08972385e-08  2.55811135e-05  2.08972385e-08  4.23900502e-04  2.08972385e-08  2.64366131e-05  2.08972385e-08  1.56846961e+00  2.08972385e-08  2.43426390e-01 
 2.09201783e-08 -5.12000000e+02  2.09201783e-08  3.69453900e-07  2.09201783e-08  4.02791875e-05  2.09201783e-08 -4.74925693e-05  2.09201783e-08 -5.40705807e-06  2.09201783e-08  1.56848405e+00  2.09201783e-08  2.43370815e-01 
 2.09409375e-08 -5.12000000e+02  2.09409375e-08  6.87170789e-07  2.09409375e-08  1.51916923e-05  2.09409375e-08  4.03563021e-04  2.09409375e-08  2.53057252e-05  2.09409375e-08  1.56850084e+00  2.09409375e-08  2.43364132e-01 
 2.09647604e-08 -5.12000000e+02  2.09647604e-08  3.87030048e-07  2.09647604e-08  2.77823193e-05  2.09647604e-08  9.59296057e-05  2.09647604e-08 -5.54970453e-06  2.09647604e-08  1.56851263e+00  2.09647604e-08  2.43289497e-01 
 2.09808804e-08 -5.12000000e+02  2.09808804e-08  7.38384736e-07  2.09808804e-08  4.13850712e-06  2.09808804e-08  3.93281538e-04  2.09808804e-08  2.64810613e-05  2.09808804e-08  1.56853122e+00  2.09808804e-08  2.43261841e-01 
 2.09932874e-08 -5.12000000e+02  2.09932874e-08  6.47122109e-07  2.09932874e-08  2.09314366e-05  2.09932874e-08  1.28978588e-04  2.09932874e-08  2.90126346e-06  2.09932874e-08  1.56853997e+00  2.09932874e-08  2.43237283e-01 
 2.10074403e-08 -5.12000000e+02  2.10074403e-08  7.74802731e-07  2.10074403e-08  3.88591793e-05  2.10074403e-08  3.82416639e-04  2.10074403e-08  2.33373398e-05  2.10074403e-08  1.56854795e+00  2.10074403e-08  2.43240207e-01 
 2.10199392e-08 -5.12000000e+02  2.10199392e-08  6.61342259e-07  2.10199392e-08  6.04328035e-05  2.10199392e-08  8.24191135e-05  2.10199392e-08 -5.55509479e-06  2.10199392e-08  1.56856191e+00  2.10199392e-08  2.43200982e-01 
 2.10328739e-08 -5.12000000e+02  2.10328739e-08  7.97895296e-07  2.10328739e-08  6.04093332e-05  2.10328739e-08  8.79837800e-05  2.10328739e-08  1.99272502e-05  2.10328739e-08  1.56856510e+00  2.10328739e-08  2.43181996e-01 
 2.10474715e-08 -5.12000000e+02  2.10474715e-08  6.07368871e-07  2.10474715e-08  1.04189489e-04  2.10474715e-08 -6.30686165e-05  2.10474715e-08 -6.99889660e-06  2.10474715e-08  1.56856744e+00  2.10474715e-08  2.43129621e-01 
 2.10660420e-08 -5.12000000e+02  2.10660420e-08  6.48995799e-07  2.10660420e-08  1.09981269e-04  2.10660420e-08  7.39628323e-05  2.10660420e-08  1.94941316e-05  2.10660420e-08  1.56858319e+00  2.10660420e-08  2.43126832e-01 
 2.10838133e-08 -5.12000000e+02  2.10838133e-08  5.39250329e-07  2.10838133e-08  1.88917918e-04  2.10838133e-08 -7.59577140e-05  2.10838133e-08 -2.09835596e-06  2.10838133e-08  1.56860633e+00  2.10838133e-08  2.43124138e-01 
 2.11020210e-08 -5.12000000e+02  2.11020210e-08  6.47973259e-07  2.11020210e-08  1.75542333e-04  2.11020210e-08  8.15946010e-05  2.11020210e-08  4.77227700e-06  2.11020210e-08  1.56862863e+00  2.11020210e-08  2.43103350e-01 
 2.11227964e-08 -5.12000000e+02  2.11227964e-08  4.98095960e-07  2.11227964e-08  1.24544820e-04  2.11227964e-08 -8.33559399e-05  2.11227964e-08 -1.37024868e-05  2.11227964e-08  1.56864794e+00  2.11227964e-08  2.43036560e-01 
 2.11401373e-08 -5.12000000e+02  2.11401373e-08  6.51179331e-07  2.11401373e-08  1.31827009e-04  2.11401373e-08  8.80288519e-05  2.11401373e-08  1.38564328e-05  2.11401373e-08  1.56866190e+00  2.11401373e-08  2.43030527e-01 
 2.11599389e-08 -5.12000000e+02  2.11599389e-08  5.23828060e-07  2.11599389e-08  2.83565881e-04  2.11599389e-08 -8.59585330e-05  2.11599389e-08 -6.61604101e-06  2.11599389e-08  1.56868331e+00  2.11599389e-08  2.43013094e-01 
 2.11843050e-08 -5.12000000e+02  2.11843050e-08  5.48162595e-07  2.11843050e-08  4.21016824e-04  2.11843050e-08  9.54674809e-05  2.11843050e-08  5.22236233e-07  2.11843050e-08  1.56870883e+00  2.11843050e-08  2.42989513e-01 
 2.12084510e-08 -5.12000000e+02  2.12084510e-08  4.68581235e-07  2.12084510e-08  4.09577673e-04  2.12084510e-08 -8.91011708e-05  2.12084510e-08 -1.27760991e-05  2.12084510e-08  1.56869691e+00  2.12084510e-08  2.42925778e-01 
 2.12353241e-08 -5.12000000e+02  2.12353241e-08  5.21379586e-07  2.12353241e-08  4.07955103e-04  2.12353241e-08  8.60055379e-05  2.12353241e-08  1.03123870e-05  2.12353241e-08  1.56871915e+00  2.12353241e-08  2.42892917e-01 
 2.12573665e-08 -5.12000000e+02  2.12573665e-08  4.94814734e-07  2.12573665e-08  3.66411635e-04  2.12573665e-08 -1.71287140e-04  2.12573665e-08  4.66007303e-07  2.12573665e-08  1.56874425e+00  2.12573665e-08  2.42850814e-01 
 2.12824064e-08 -5.12000000e+02  2.12824064e-08  5.37084618e-07  2.12824064e-08  2.29414282e-04  2.12824064e-08  1.12150885e-04  2.12824064e-08  5.26636629e-06  2.12824064e-08  1.56877497e+00  2.12824064e-08  2.42812253e-01 
 2.13006478e-08 -5.12000000e+02  2.13006478e-08  5.50985560e-07  2.13006478e-08  1.40127025e-04  2.13006478e-08  5.19599825e-05  2.13006478e-08 -8.30917675e-06  2.13006478e-08  1.56878225e+00  2.13006478e-08  2.42765084e-01 
 2.13228974e-08 -5.12000000e+02  2.13228974e-08  5.70591769e-07  2.13228974e-08  9.35876368e-05  2.13228974e-08  3.25892511e-04  2.13228974e-08  1.04269917e-05  2.13228974e-08  1.56879930e+00  2.13228974e-08  2.42734969e-01 
 2.13511039e-08 -5.12000000e+02  2.13511039e-08  4.33752542e-07  2.13511039e-08  4.24765361e-05  2.13511039e-08  3.66428782e-04  2.13511039e-08 -1.02124583e-05  2.13511039e-08  1.56880963e+00  2.13511039e-08  2.42685641e-01 
 2.13843025e-08 -5.12000000e+02  2.13843025e-08  4.77059271e-07  2.13843025e-08  4.24016337e-05  2.13843025e-08  1.49518606e-03  2.13843025e-08  1.18893043e-05  2.13843025e-08  1.56885192e+00  2.13843025e-08  2.42631231e-01 
 2.14108291e-08 -5.12000000e+02  2.14108291e-08  4.47530582e-07  2.14108291e-08  1.51595729e-05  2.14108291e-08  3.45088363e-03  2.14108291e-08 -8.73115387e-06  2.14108291e-08  1.56886203e+00  2.14108291e-08  2.42551881e-01 
 2.14350405e-08 -5.12000000e+02  2.14350405e-08  5.45106481e-07  2.14350405e-08  3.22986797e-05  2.14350405e-08  2.42820672e-03  2.14350405e-08  1.20066145e-05  2.14350405e-08  1.56889316e+00  2.14350405e-08  2.42547309e-01 
 2.14590438e-08 -5.12000000e+02  2.14590438e-08  4.70240903e-07  2.14590438e-08  9.50223991e-06  2.14590438e-08  3.11796401e-04  2.14590438e-08 -4.80613811e-06  2.14590438e-08  1.56890112e+00  2.14590438e-08  2.42495267e-01 
 2.14808519e-08 -5.12000000e+02  2.14808519e-08  5.87111119e-07  2.14808519e-08  2.97060246e-05  2.14808519e-08  2.89806082e-04  2.14808519e-08  1.02318205e-05  2.14808519e-08  1.56892270e+00  2.14808519e-08  2.42459890e-01 
 2.15030854e-08 -5.12000000e+02  2.15030854e-08  4.55902328e-07  2.15030854e-08  6.69221220e-06  2.15030854e-08 -2.64656524e-04  2.15030854e-08 -9.88680152e-06  2.15030854e-08  1.56892631e+00  2.15030854e-08  2.42392797e-01 
 2.15293923e-08 -5.12000000e+02  2.15293923e-08  5.99188879e-07  2.15293923e-08  2.68517896e-05  2.15293923e-08  2.76200752e-04  2.15293923e-08  1.36582720e-05  2.15293923e-08  1.56897735e+00  2.15293923e-08  2.42356763e-01 
 2.15811053e-08 -5.12000000e+02  2.15811053e-08  2.42329057e-07  2.15811053e-08  2.77347071e-06  2.15811053e-08 -2.75441748e-04  2.15811053e-08 -2.50005503e-06  2.15811053e-08  1.56901525e+00  2.15811053e-08  2.42253023e-01 
 2.16845314e-08 -5.12000000e+02  2.16845314e-08  4.51396109e-07  2.16845314e-08  2.18409125e-05  2.16845314e-08  2.76101790e-04  2.16845314e-08  4.98992098e-06  2.16845314e-08  1.56909495e+00  2.16845314e-08  2.42046313e-01 
 2.18118916e-08 -5.12000000e+02  2.18118916e-08  1.49089052e-07  2.18118916e-08 -2.37109615e-06  2.18118916e-08 -2.75726844e-04  2.18118916e-08 -2.57770962e-06  2.18118916e-08  1.56919329e+00  2.18118916e-08  2.41795015e-01 
 2.20666119e-08 -5.12000000e+02  2.20666119e-08  4.28812335e-07  2.20666119e-08  1.78344952e-05  2.20666119e-08  2.76204332e-04  2.20666119e-08  4.12090151e-06  2.20666119e-08  1.56941516e+00  2.20666119e-08  2.41332826e-01 
 2.23406655e-08 -5.12000000e+02  2.23406655e-08  1.13116518e-07  2.23406655e-08 -4.70289326e-06  2.23406655e-08 -2.75816655e-04  2.23406655e-08 -2.83604109e-06  2.23406655e-08  1.56960599e+00  2.23406655e-08  2.40846389e-01 
 2.28887729e-08 -5.12000000e+02  2.28887729e-08  4.22172789e-07  2.28887729e-08  1.72069139e-05  2.28887729e-08  2.76217216e-04  2.28887729e-08  2.66597747e-06  2.28887729e-08  1.57001518e+00  2.28887729e-08  2.39913626e-01 
 2.35865288e-08 -5.12000000e+02  2.35865288e-08  9.50695947e-08  2.35865288e-08 -5.03010763e-06  2.35865288e-08 -2.75888371e-04  2.35865288e-08 -1.95042444e-06  2.35865288e-08  1.57049134e+00  2.35865288e-08  2.38767376e-01 
 2.45865288e-08 -5.12000000e+02  2.45865288e-08  4.19957072e-07  2.45865288e-08  1.69277977e-05  2.45865288e-08  2.76216867e-04  2.45865288e-08  2.55978407e-06  2.45865288e-08  1.57114615e+00  2.45865288e-08  2.37213555e-01 
 2.55865288e-08 -5.12000000e+02  2.55865288e-08  8.97501556e-08  2.55865288e-08 -5.35923453e-06  2.55865288e-08 -2.75919236e-04  2.55865288e-08 -1.94502677e-06  2.55865288e-08  1.57173766e+00  2.55865288e-08  2.35737196e-01 
 2.65865288e-08 -5.12000000e+02  2.65865288e-08  4.22579266e-07  2.65865288e-08  1.66016241e-05  2.65865288e-08  2.76219369e-04  2.65865288e-08  2.06653224e-06  2.65865288e-08  1.57231188e+00  2.65865288e-08  2.34369601e-01 
 2.75865288e-08 -5.12000000e+02  2.75865288e-08  8.71314574e-08  2.75865288e-08 -5.65399519e-06  2.75865288e-08 -2.75946343e-04  2.75865288e-08 -1.90408225e-06  2.75865288e-08  1.57282101e+00  2.75865288e-08  2.33069978e-01 
 2.85865288e-08 -5.12000000e+02  2.85865288e-08  4.25194435e-07  2.85865288e-08  1.62915369e-05  2.85865288e-08  2.76222742e-04  2.85865288e-08  1.84944598e-06  2.85865288e-08  1.57332439e+00  2.85865288e-08  2.31880664e-01 
 2.95865288e-08 -5.12000000e+02  2.95865288e-08  8.45198771e-08  2.95865288e-08 -5.96277672e-06  2.95865288e-08 -2.75962556e-04  2.95865288e-08 -1.26978284e-06  2.95865288e-08  1.57377090e+00  2.95865288e-08  2.30755434e-01 
 3.05865288e-08 -5.12000000e+02  3.05865288e-08  4.27802392e-07  3.05865288e-08  1.59966705e-05  3.05865288e-08  2.76230073e-04  3.05865288e-08  1.69929634e-06  3.05865288e-08  1.57422297e+00  3.05865288e-08  2.29725906e-01 
 3.09701546e-08 -5.12000000e+02  3.09701546e-08  8.98185623e-08  3.09701546e-08 -6.13914058e-06  3.09701546e-08 -2.75990848e-04  3.09701546e-08 -1.50028688e-06  3.09701546e-08  1.57436303e+00  3.09701546e-08  2.29330034e-01 
 3.09889417e-08 -5.12000000e+02  3.09889417e-08  4.30169218e-07  3.09889417e-08  4.90105004e-06  3.09889417e-08  3.04977336e-08  3.09889417e-08 -2.47024296e-06  3.09889417e-08  1.57437532e+00  3.09889417e-08  2.29317735e-01 
 3.10265158e-08 -5.12000000e+02  3.10265158e-08  4.06315434e-07  3.10265158e-08  5.55786327e-05  3.10265158e-08  1.52254580e-05  3.10265158e-08  5.89048156e-08  3.10265158e-08  1.57438445e+00  3.10265158e-08  2.29271176e-01 
 3.10756991e-08 -5.12000000e+02  3.10756991e-08  3.87525514e-07  3.10756991e-08  2.00522702e-05  3.10756991e-08  2.97817129e-06  3.10756991e-08 -1.99392913e-06  3.10756991e-08  1.57440279e+00  3.10756991e-08  2.29216925e-01 
 3.11322417e-08 -5.12000000e+02  3.11322417e-08  3.53075260e-07  3.11322417e-08  4.87782214e-05  3.11322417e-08  1.49013847e-05  3.11322417e-08 -6.18236031e-08  3.11322417e-08  1.57442070e+00  3.11322417e-08  2.29167471e-01 
 3.12388263e-08 -5.12000000e+02  3.12388263e-08  3.16634859e-07  3.12388263e-08  1.48850291e-05  3.12388263e-08  4.39645321e-06  3.12388263e-08 -1.35933506e-06  3.12388263e-08  1.57446602e+00  3.12388263e-08  2.29063165e-01 
 3.14193584e-08 -5.12000000e+02  3.14193584e-08  2.77089245e-07  3.14193584e-08  6.57239586e-05  3.14193584e-08  6.17141046e-05  3.14193584e-08  6.64629815e-07  3.14193584e-08  1.57453581e+00  3.14193584e-08  2.28889309e-01 
 3.15636393e-08 -5.12000000e+02  3.15636393e-08  2.99918607e-07  3.15636393e-08  7.75799597e-05  3.15636393e-08  9.95884467e-05  3.15636393e-08 -4.64186246e-07  3.15636393e-08  1.57461472e+00  3.15636393e-08  2.28760759e-01 
 3.16252462e-08 -5.12000000e+02  3.16252462e-08  3.46316001e-07  3.16252462e-08  1.23992052e-04  3.16252462e-08  9.36426203e-05  3.16252462e-08 -6.28712888e-07  3.16252462e-08  1.57464358e+00  3.16252462e-08  2.28709326e-01 
 3.16644853e-08 -5.12000000e+02  3.16644853e-08  4.12680628e-07  3.16644853e-08  2.28950575e-04  3.16644853e-08  3.78438344e-04  3.16644853e-08 -2.48576401e-06  3.16644853e-08  1.57468480e+00  3.16644853e-08  2.28676175e-01 
 3.16979842e-08 -5.12000000e+02  3.16979842e-08  4.36409266e-07  3.16979842e-08  4.52171516e-04  3.16979842e-08  1.02105382e-03  3.16979842e-08 -4.98185305e-06  3.16979842e-08  1.57469558e+00  3.16979842e-08  2.28644001e-01 
 3.17237058e-08 -5.12000000e+02  3.17237058e-08  4.89592697e-07  3.17237058e-08  4.96207318e-04  3.17237058e-08  1.68909011e-03  3.17237058e-08 -1.79426694e-06  3.17237058e-08  1.57473227e+00  3.17237058e-08  2.28613199e-01 
 3.17385092e-08 -5.12000000e+02  3.17385092e-08  6.65221550e-07  3.17385092e-08  3.07385685e-04  3.17385092e-08  1.04577089e-03  3.17385092e-08 -4.53548649e-06  3.17385092e-08  1.57478063e+00  3.17385092e-08  2.28592242e-01 
 3.17586073e-08 -5.12000000e+02  3.17586073e-08  5.63117852e-07  3.17586073e-08  2.56278177e-04  3.17586073e-08  1.74586740e-03  3.17586073e-08 -1.79501210e-07  3.17586073e-08  1.57477910e+00  3.17586073e-08  2.28566437e-01 
 3.17751424e-08 -5.12000000e+02  3.17751424e-08  6.20914187e-07  3.17751424e-08  2.80139567e-04  3.17751424e-08  3.79529843e-03  3.17751424e-08 -3.67236529e-06  3.17751424e-08  1.57462404e+00  3.17751424e-08  2.28543561e-01 
 3.17939961e-08 -5.12000000e+02  3.17939961e-08  5.83658921e-07  3.17939961e-08  2.92700537e-04  3.17939961e-08  2.61834572e-03  3.17939961e-08 -2.76511845e-06  3.17939961e-08  1.57462172e+00  3.17939961e-08  2.28527612e-01 
 3.18051584e-08 -5.12000000e+02  3.18051584e-08  7.80610118e-07  3.18051584e-08  2.56186458e-04  3.18051584e-08  1.57841348e-03  3.18051584e-08 -1.48350786e-05  3.18051584e-08  1.57470921e+00  3.18051584e-08  2.28525484e-01 
 3.18180380e-08 -5.12000000e+02  3.18180380e-08  7.43973167e-07  3.18180380e-08  2.38076724e-04  3.18180380e-08  2.58409799e-03  3.18180380e-08  5.79291542e-06  3.18180380e-08  1.57471385e+00  3.18180380e-08  2.28525699e-01 
 3.18335300e-08 -5.12000000e+02  3.18335300e-08  6.39142213e-07  3.18335300e-08  1.91450532e-04  3.18335300e-08  1.61009045e-03  3.18335300e-08 -6.94080004e-06  3.18335300e-08  1.57481087e+00  3.18335300e-08  2.28512400e-01 
 3.18458689e-08 -5.12000000e+02  3.18458689e-08  7.48755914e-07  3.18458689e-08  1.57706623e-04  3.18458689e-08  4.27435871e-04  3.18458689e-08  1.38052713e-06  3.18458689e-08  1.57463601e+00  3.18458689e-08  2.28496224e-01 
 3.18586092e-08 -5.12000000e+02  3.18586092e-08  7.31616939e-07  3.18586092e-08  1.63519635e-04  3.18586092e-08  9.41264452e-04  3.18586092e-08 -2.05278795e-05  3.18586092e-08  1.57471706e+00  3.18586092e-08  2.28479321e-01 
 3.18759946e-08 -5.12000000e+02  3.18759946e-08  6.13230963e-07  3.18759946e-08  1.37834521e-04  3.18759946e-08  5.52025891e-04  3.18759946e-08  7.97571056e-06  3.18759946e-08  1.57457463e+00  3.18759946e-08  2.28468336e-01 
 3.18942147e-08 -5.12000000e+02  3.18942147e-08  5.83050565e-07  3.18942147e-08  1.45789135e-04  3.18942147e-08  9.37953544e-04  3.18942147e-08 -1.22224103e-05  3.18942147e-08  1.57481769e+00  3.18942147e-08  2.28459787e-01 
 3.19139444e-08 -5.12000000e+02  3.19139444e-08  5.77431006e-07  3.19139444e-08  1.37710230e-04  3.19139444e-08  1.15516831e-03  3.19139444e-08  2.96502731e-06  3.19139444e-08  1.57470681e+00  3.19139444e-08  2.28421941e-01 
 3.19362213e-08 -5.12000000e+02  3.19362213e-08  5.15589409e-07  3.19362213e-08  1.59617379e-04  3.19362213e-08  1.67349492e-03  3.19362213e-08 -7.90015684e-06  3.19362213e-08  1.57474398e+00  3.19362213e-08  2.28390269e-01 
 3.19561971e-08 -5.12000000e+02  3.19561971e-08  5.77305234e-07  3.19561971e-08  1.71455567e-04  3.19561971e-08  2.68721342e-03  3.19561971e-08  1.06138270e-05  3.19561971e-08  1.57464385e+00  3.19561971e-08  2.28349238e-01 
 3.19744046e-08 -5.12000000e+02  3.19744046e-08  5.73370231e-07  3.19744046e-08  2.04198532e-04  3.19744046e-08  2.52847427e-03  3.19744046e-08  4.15381934e-06  3.19744046e-08  1.57481111e+00  3.19744046e-08  2.28309433e-01 
 3.19866436e-08 -5.12000000e+02  3.19866436e-08  7.70870996e-07  3.19866436e-08  2.23066913e-04  3.19866436e-08 -1.13760579e-04  3.19866436e-08  6.71520433e-06  3.19866436e-08  1.57475644e+00  3.19866436e-08  2.28281420e-01 
 3.20008585e-08 -5.12000000e+02  3.20008585e-08  6.27916492e-07  3.20008585e-08  2.50274170e-04  3.20008585e-08  7.84915043e-04  3.20008585e-08  1.24127290e-05  3.20008585e-08  1.57487581e+00  3.20008585e-08  2.28203760e-01 
 3.20171473e-08 -5.12000000e+02  3.20171473e-08  7.59880361e-07  3.20171473e-08  1.76223526e-04  3.20171473e-08 -3.16367983e-04  3.20171473e-08  9.74081101e-06  3.20171473e-08  1.57481594e+00  3.20171473e-08  2.28171618e-01 
 3.20352813e-08 -5.12000000e+02  3.20352813e-08  3.79918760e-07  3.20352813e-08  2.94673211e-04  3.20352813e-08  4.02972026e-04  3.20352813e-08 -3.31434244e-06  3.20352813e-08  1.57470807e+00  3.20352813e-08  2.28136749e-01 
 3.20596564e-08 -5.12000000e+02  3.20596564e-08  7.84878259e-07  3.20596564e-08  9.79186242e-05  3.20596564e-08 -3.34499504e-04  3.20596564e-08  1.00852640e-05  3.20596564e-08  1.57482531e+00  3.20596564e-08  2.28154795e-01 
 3.20821240e-08 -5.12000000e+02  3.20821240e-08  1.85511950e-07  3.20821240e-08  1.36859864e-04  3.20821240e-08  3.20021088e-04  3.20821240e-08 -1.34052829e-05  3.20821240e-08  1.57474684e+00  3.20821240e-08  2.28133225e-01 
 3.21092387e-08 -5.12000000e+02  3.21092387e-08  8.62829658e-07  3.21092387e-08 -1.49975865e-05  3.21092387e-08 -3.02429003e-04  3.21092387e-08  3.22297569e-06  3.21092387e-08  1.57483419e+00  3.21092387e-08  2.28142411e-01 
 3.21428807e-08 -5.12000000e+02  3.21428807e-08  3.16979472e-08  3.21428807e-08  8.42993785e-05  3.21428807e-08  2.94632864e-04  3.21428807e-08 -7.42451347e-06  3.21428807e-08  1.57475283e+00  3.21428807e-08  2.28142438e-01 
 3.21752478e-08 -5.12000000e+02  3.21752478e-08  8.65802237e-07  3.21752478e-08 -4.06784011e-05  3.21752478e-08 -2.85652010e-04  3.21752478e-08  5.74317609e-06  3.21752478e-08  1.57484920e+00  3.21752478e-08  2.28129508e-01 
 3.22399818e-08 -5.12000000e+02  3.22399818e-08 -8.02043790e-08  3.22399818e-08  6.56513717e-05  3.22399818e-08  2.83035523e-04  3.22399818e-08 -1.01550513e-05  3.22399818e-08  1.57480784e+00  3.22399818e-08  2.28097568e-01 
 3.23184376e-08 -5.12000000e+02  3.23184376e-08  7.61437530e-07  3.23184376e-08 -5.17942829e-05  3.23184376e-08 -2.79841300e-04  3.23184376e-08  6.68444734e-06  3.23184376e-08  1.57492579e+00  3.23184376e-08  2.28040161e-01 
 3.24337850e-08 -5.12000000e+02  3.24337850e-08 -1.28847976e-07  3.24337850e-08  6.21274764e-05  3.24337850e-08  2.78719693e-04  3.24337850e-08 -1.06939965e-05  3.24337850e-08  1.57489251e+00  3.24337850e-08  2.27945118e-01 
 3.25839256e-08 -5.12000000e+02  3.25839256e-08  7.25905122e-07  3.25839256e-08 -5.22745607e-05  3.25839256e-08 -2.76999570e-04  3.25839256e-08  7.30466594e-06  3.25839256e-08  1.57502077e+00  3.25839256e-08  2.27822390e-01 
 3.28842068e-08 -5.12000000e+02  3.28842068e-08 -1.64529111e-07  3.28842068e-08  6.18298631e-05  3.28842068e-08  2.76846044e-04  3.28842068e-08 -6.20752531e-06  3.28842068e-08  1.57507527e+00  3.28842068e-08  2.27607984e-01 
 3.34847692e-08 -5.12000000e+02  3.34847692e-08  6.95008600e-07  3.34847692e-08 -5.23832821e-05  3.34847692e-08 -2.76186031e-04  3.34847692e-08  7.71890841e-06  3.34847692e-08  1.57533905e+00  3.34847692e-08  2.27068116e-01 
 3.44847692e-08 -5.12000000e+02  3.44847692e-08 -1.79902595e-07  3.44847692e-08  6.14695941e-05  3.44847692e-08  2.76336392e-04  3.44847692e-08 -6.91097522e-06  3.44847692e-08  1.57562554e+00  3.44847692e-08  2.26314201e-01 
 3.54847692e-08 -5.12000000e+02  3.54847692e-08  6.91002717e-07  3.54847692e-08 -5.26585813e-05  3.54847692e-08 -2.75870658e-04  3.54847692e-08  7.62101684e-06  3.54847692e-08  1.57601296e+00  3.54847692e-08  2.25552966e-01 
 3.64847692e-08 -5.12000000e+02  3.64847692e-08 -1.80057387e-07  3.64847692e-08  6.11784267e-05  3.64847692e-08  2.75983863e-04  3.64847692e-08 -7.11120565e-06  3.64847692e-08  1.57625384e+00  3.64847692e-08  2.24892447e-01 
 3.74847692e-08 -5.12000000e+02  3.74847692e-08  6.91138257e-07  3.74847692e-08 -5.28965096e-05  3.74847692e-08 -2.75532719e-04  3.74847692e-08  7.85571935e-06  3.74847692e-08  1.57660825e+00  3.74847692e-08  2.24235593e-01 
 3.84847692e-08 -5.12000000e+02  3.84847692e-08 -1.80173935e-07  3.84847692e-08  6.09091501e-05  3.84847692e-08  2.75641463e-04  3.84847692e-08 -6.96452009e-06  3.84847692e-08  1.57681184e+00  3.84847692e-08  2.23662844e-01 
 3.94847692e-08 -5.12000000e+02  3.94847692e-08  6.91235903e-07  3.94847692e-08 -5.30949874e-05  3.94847692e-08 -2.75209972e-04  3.94847692e-08  8.07811345e-06  3.94847692e-08  1.57714435e+00  3.94847692e-08  2.23096669e-01 
 3.98279021e-08 -5.12000000e+02  3.98279021e-08 -1.67846957e-07  3.98279021e-08  6.07518334e-05  3.98279021e-08  2.74992417e-04  3.98279021e-08 -7.60598304e-06  3.98279021e-08  1.57716622e+00  3.98279021e-08  2.22919085e-01 
 4.00652867e-08 -5.12000000e+02  4.00652867e-08  7.11289813e-07  4.00652867e-08 -9.52344976e-05  4.00652867e-08 -2.85162294e-04  4.00652867e-08  7.83297865e-06  4.00652867e-08  1.57730354e+00  4.00652867e-08  2.22781977e-01 
 4.02459686e-08 -5.12000000e+02  4.02459686e-08 -1.50284807e-07  4.02459686e-08 -4.74559837e-05  4.02459686e-08  2.44214969e-04  4.02459686e-08 -8.76489226e-06  4.02459686e-08  1.57728629e+00  4.02459686e-08  2.22694934e-01 
 4.03541647e-08 -5.12000000e+02  4.03541647e-08  7.40700248e-07  4.03541647e-08 -9.95735625e-05  4.03541647e-08 -2.71213913e-04  4.03541647e-08  6.09566724e-06  4.03541647e-08  1.57735686e+00  4.03541647e-08  2.22624893e-01 
 4.04855108e-08 -5.12000000e+02  4.04855108e-08 -1.33787997e-07  4.04855108e-08 -1.09542292e-05  4.04855108e-08  3.90310209e-04  4.04855108e-08 -9.13844760e-06  4.04855108e-08  1.57733106e+00  4.04855108e-08  2.22573299e-01 
 4.05668721e-08 -5.12000000e+02  4.05668721e-08  7.54295752e-07  4.05668721e-08 -4.49948433e-05  4.05668721e-08  3.98234502e-05  4.05668721e-08  7.76155711e-06  4.05668721e-08  1.57743663e+00  4.05668721e-08  2.22526369e-01 
 4.06244216e-08 -5.12000000e+02  4.06244216e-08 -6.06794671e-08  4.06244216e-08  3.42053505e-05  4.06244216e-08  1.00505960e-03  4.06244216e-08 -8.96476616e-06  4.06244216e-08  1.57739859e+00  4.06244216e-08  2.22488535e-01 
 4.06801055e-08 -5.12000000e+02  4.06801055e-08  7.74623845e-07  4.06801055e-08 -1.98268334e-05  4.06801055e-08  2.09578850e-03  4.06801055e-08  4.75506197e-06  4.06801055e-08  1.57748528e+00  4.06801055e-08  2.22436811e-01 
 4.07086184e-08 -5.12000000e+02  4.07086184e-08  7.87699598e-08  4.07086184e-08  4.69517283e-05  4.07086184e-08  4.55048486e-03  4.07086184e-08 -1.29566889e-05  4.07086184e-08  1.57747326e+00  4.07086184e-08  2.22422545e-01 
 4.07278573e-08 -5.12000000e+02  4.07278573e-08  9.24753808e-07  4.07278573e-08 -1.16250280e-05  4.07278573e-08  3.48745626e-03  4.07278573e-08 -1.29596590e-06  4.07278573e-08  1.57756620e+00  4.07278573e-08  2.22391104e-01 
 4.07435216e-08 -5.12000000e+02  4.07435216e-08  3.35773874e-07  4.07435216e-08  5.05766925e-05  4.07435216e-08  2.55000308e-03  4.07435216e-08 -1.39264091e-05  4.07435216e-08  1.57755538e+00  4.07435216e-08  2.22375974e-01 
 4.07598014e-08 -5.12000000e+02  4.07598014e-08  9.01730520e-07  4.07598014e-08 -6.27774760e-06  4.07598014e-08  2.67560213e-04  4.07598014e-08  8.04625894e-06  4.07598014e-08  1.57760201e+00  4.07598014e-08  2.22353024e-01 
 4.07765739e-08 -5.12000000e+02  4.07765739e-08  3.83795384e-07  4.07765739e-08  5.42290324e-05  4.07765739e-08  1.08825301e-03  4.07765739e-08 -9.70369231e-06  4.07765739e-08  1.57738391e+00  4.07765739e-08  2.22350993e-01 
 4.07919430e-08 -5.12000000e+02  4.07919430e-08  8.47877787e-07  4.07919430e-08  1.12311596e-07  4.07919430e-08 -1.29138644e-04  4.07919430e-08  1.31517423e-06  4.07919430e-08  1.57738260e+00  4.07919430e-08  2.22282394e-01 
 4.08054821e-08 -5.12000000e+02  4.08054821e-08  5.41914652e-07  4.08054821e-08  5.98328526e-05  4.08054821e-08  1.04472150e-03  4.08054821e-08 -1.19678156e-05  4.08054821e-08  1.57750753e+00  4.08054821e-08  2.22269076e-01 
 4.08210106e-08 -5.12000000e+02  4.08210106e-08  7.86905590e-07  4.08210106e-08  8.70020230e-06  4.08210106e-08 -1.36757472e-04  4.08210106e-08  4.91660877e-06  4.08210106e-08  1.57753586e+00  4.08210106e-08  2.22286818e-01 
 4.08375710e-08 -5.12000000e+02  4.08375710e-08  5.06989465e-07  4.08375710e-08  6.68031933e-05  4.08375710e-08  1.13083350e-03  4.08375710e-08  1.60949799e-06  4.08375710e-08  1.57747922e+00  4.08375710e-08  2.22274568e-01 
 4.08558582e-08 -5.12000000e+02  4.08558582e-08  6.94885528e-07  4.08558582e-08  1.39410193e-05  4.08558582e-08  6.52014264e-06  4.08558582e-08  8.58603207e-06  4.08558582e-08  1.57749586e+00  4.08558582e-08  2.22245308e-01 
 4.08762260e-08 -5.12000000e+02  4.08762260e-08  4.62174410e-07  4.08762260e-08  6.25524658e-05  4.08762260e-08  8.87948277e-04  4.08762260e-08 -9.61207767e-06  4.08762260e-08  1.57740344e+00  4.08762260e-08  2.22245783e-01 
 4.08976790e-08 -5.12000000e+02  4.08976790e-08  6.23580890e-07  4.08976790e-08  7.16200999e-06  4.08976790e-08 -3.34834893e-04  4.08976790e-08  1.32405491e-05  4.08976790e-08  1.57743017e+00  4.08976790e-08  2.22231268e-01 
 4.09196380e-08 -5.12000000e+02  4.09196380e-08  4.60197656e-07  4.09196380e-08  5.28386513e-05  4.09196380e-08  5.83469515e-04  4.09196380e-08 -1.02728760e-05  4.09196380e-08  1.57752136e+00  4.09196380e-08  2.22209302e-01 
 4.09429819e-08 -5.12000000e+02  4.09429819e-08  5.85077373e-07  4.09429819e-08 -3.20085621e-06  4.09429819e-08 -4.92075640e-04  4.09429819e-08  1.14868271e-05  4.09429819e-08  1.57754526e+00  4.09429819e-08  2.22192504e-01 
 4.09771672e-08 -5.12000000e+02  4.09771672e-08  3.71306897e-07  4.09771672e-08  3.48114209e-05  4.09771672e-08  5.15653229e-04  4.09771672e-08 -7.06210447e-06  4.09771672e-08  1.57744361e+00  4.09771672e-08  2.22186303e-01 
 4.10099971e-08 -5.12000000e+02  4.10099971e-08  4.97845778e-07  4.10099971e-08  1.65200412e-05  4.10099971e-08 -5.21968049e-04  4.10099971e-08  9.23507493e-06  4.10099971e-08  1.57745160e+00  4.10099971e-08  2.22205282e-01 
 4.10456503e-08 -5.12000000e+02  4.10456503e-08  3.73622681e-07  4.10456503e-08  1.54218962e-04  4.10456503e-08  5.30123552e-04  4.10456503e-08 -7.91542122e-06  4.10456503e-08  1.57749961e+00  4.10456503e-08  2.22169429e-01 
 4.10751062e-08 -5.12000000e+02  4.10751062e-08  5.09473764e-07  4.10751062e-08  1.65051004e-04  4.10751062e-08 -5.31117431e-04  4.10751062e-08  4.91610292e-06  4.10751062e-08  1.57754582e+00  4.10751062e-08  2.22171819e-01 
 4.10971987e-08 -5.12000000e+02  4.10971987e-08  4.88206019e-07  4.10971987e-08  1.72329138e-04  4.10971987e-08  5.35538566e-04  4.10971987e-08 -1.43469748e-05  4.10971987e-08  1.57747505e+00  4.10971987e-08  2.22168737e-01 
 4.11233224e-08 -5.12000000e+02  4.11233224e-08  5.31277448e-07  4.11233224e-08  1.03289981e-04  4.11233224e-08 -5.36074228e-04  4.11233224e-08 -1.72854863e-07  4.11233224e-08  1.57749936e+00  4.11233224e-08  2.22195684e-01 
 4.11424900e-08 -5.12000000e+02  4.11424900e-08  5.33437589e-07  4.11424900e-08  3.16129091e-04  4.11424900e-08  5.43748314e-04  4.11424900e-08 -1.06176076e-05  4.11424900e-08  1.57753033e+00  4.11424900e-08  2.22187823e-01 
 4.11646540e-08 -5.12000000e+02  4.11646540e-08  5.70716563e-07  4.11646540e-08  3.89423116e-04  4.11646540e-08 -5.36330634e-04  4.11646540e-08  3.61467539e-06  4.11646540e-08  1.57754822e+00  4.11646540e-08  2.22195129e-01 
 4.11884343e-08 -5.12000000e+02  4.11884343e-08  4.76247012e-07  4.11884343e-08  4.35585882e-04  4.11884343e-08  5.45415569e-04  4.11884343e-08 -9.67377709e-06  4.11884343e-08  1.57757681e+00  4.11884343e-08  2.22170922e-01 
 4.12151806e-08 -5.12000000e+02  4.12151806e-08  5.18853148e-07  4.12151806e-08  3.80204293e-04  4.12151806e-08 -5.44612668e-04  4.12151806e-08 -2.24740315e-06  4.12151806e-08  1.57751624e+00  4.12151806e-08  2.22182701e-01 
 4.12366406e-08 -5.12000000e+02  4.12366406e-08  5.05994773e-07  4.12366406e-08  4.00025570e-04  4.12366406e-08  4.71779758e-04  4.12366406e-08 -5.80049237e-06  4.12366406e-08  1.57754046e+00  4.12366406e-08  2.22197058e-01 
 4.12612425e-08 -5.12000000e+02  4.12612425e-08  5.37628260e-07  4.12612425e-08  2.18266946e-04  4.12612425e-08 -5.51322059e-04  4.12612425e-08  6.61023015e-06  4.12612425e-08  1.57755448e+00  4.12612425e-08  2.22211799e-01 
 4.12792381e-08 -5.12000000e+02  4.12792381e-08  5.59949198e-07  4.12792381e-08  1.74991250e-04  4.12792381e-08  6.77042816e-04  4.12792381e-08 -9.47952578e-06  4.12792381e-08  1.57758358e+00  4.12792381e-08  2.22175402e-01 
 4.13013361e-08 -5.12000000e+02  4.13013361e-08  5.66690880e-07  4.13013361e-08  7.10140344e-05  4.13013361e-08 -3.43729154e-04  4.13013361e-08 -3.07249337e-06  4.13013361e-08  1.57754237e+00  4.13013361e-08  2.22176825e-01 
 4.13304819e-08 -5.12000000e+02  4.13304819e-08  4.32955295e-07  4.13304819e-08  6.54572278e-05  4.13304819e-08  9.93004660e-04  4.13304819e-08 -1.32453384e-05  4.13304819e-08  1.57756514e+00  4.13304819e-08  2.22136228e-01 
 4.13630508e-08 -5.12000000e+02  4.13630508e-08  4.73904934e-07  4.13630508e-08  1.33226348e-05  4.13630508e-08  6.18022874e-04  4.13630508e-08  9.22257858e-06  4.13630508e-08  1.57756337e+00  4.13630508e-08  2.22120840e-01 
 4.13906852e-08 -5.12000000e+02  4.13906852e-08  4.45391642e-07  4.13906852e-08  3.60951627e-05  4.13906852e-08  3.76706704e-03  4.13906852e-08 -6.11375152e-06  4.13906852e-08  1.57759450e+00  4.13906852e-08  2.22108514e-01 
 4.14201103e-08 -5.12000000e+02  4.14201103e-08  4.93588296e-07  4.14201103e-08  2.26157864e-06  4.14201103e-08  1.67221996e-03  4.14201103e-08  3.24674091e-06  4.14201103e-08  1.57756529e+00  4.14201103e-08  2.22127538e-01 
 4.14471521e-08 -5.12000000e+02  4.14471521e-08  4.49165324e-07  4.14471521e-08  2.91788519e-05  4.14471521e-08  7.67833499e-04  4.14471521e-08 -8.30474479e-06  4.14471521e-08  1.57758927e+00  4.14471521e-08  2.22092742e-01 
 4.14723975e-08 -5.12000000e+02  4.14723975e-08  5.35936414e-07  4.14723975e-08  5.50560215e-08  4.14723975e-08 -4.29792959e-04  4.14723975e-08  5.80392926e-06  4.14723975e-08  1.57756660e+00  4.14723975e-08  2.22093129e-01 
 4.14980030e-08 -5.12000000e+02  4.14980030e-08  4.41664982e-07  4.14980030e-08  2.50888109e-05  4.14980030e-08  4.04707941e-04  4.14980030e-08 -5.21099563e-06  4.14980030e-08  1.57761933e+00  4.14980030e-08  2.22068545e-01 
 4.15253384e-08 -5.12000000e+02  4.15253384e-08  5.57625226e-07  4.15253384e-08 -1.77975297e-06  4.15253384e-08 -3.85609236e-04  4.15253384e-08  2.98768521e-06  4.15253384e-08  1.57759529e+00  4.15253384e-08  2.22078736e-01 
 4.15800091e-08 -5.12000000e+02  4.15800091e-08  2.74822181e-07  4.15800091e-08  2.13575037e-05  4.15800091e-08  3.83146920e-04  4.15800091e-08 -3.63331729e-06  4.15800091e-08  1.57763773e+00  4.15800091e-08  2.22046716e-01 
 4.16845504e-08 -5.12000000e+02  4.16845504e-08  4.09873161e-07  4.16845504e-08 -5.71830329e-06  4.16845504e-08 -3.80636424e-04  4.16845504e-08  6.32053120e-06  4.16845504e-08  1.57760799e+00  4.16845504e-08  2.22017725e-01 
 4.18185986e-08 -5.12000000e+02  4.18185986e-08  1.89141064e-07  4.18185986e-08  1.71565821e-05  4.18185986e-08  3.80010371e-04  4.18185986e-08 -2.49154867e-06  4.18185986e-08  1.57769093e+00  4.18185986e-08  2.21955970e-01 
 4.20866950e-08 -5.12000000e+02  4.20866950e-08  3.84248962e-07  4.20866950e-08 -8.37250260e-06  4.20866950e-08 -3.78869717e-04  4.20866950e-08  5.81998763e-06  4.20866950e-08  1.57769251e+00  4.20866950e-08  2.21838354e-01 
 4.23744366e-08 -5.12000000e+02  4.23744366e-08  1.56019900e-07  4.23744366e-08  1.56741406e-05  4.23744366e-08  3.78807133e-04  4.23744366e-08 -4.02539607e-06  4.23744366e-08  1.57780455e+00  4.23744366e-08  2.21703064e-01 
 4.29499200e-08 -5.12000000e+02  4.29499200e-08  3.77286584e-07  4.29499200e-08 -8.60141336e-06  4.29499200e-08 -3.78151873e-04  4.29499200e-08  4.85726314e-06  4.29499200e-08  1.57788451e+00  4.29499200e-08  2.21453318e-01 
 4.38334327e-08 -5.12000000e+02  4.38334327e-08  1.38048290e-07  4.38334327e-08  1.54822867e-05  4.38334327e-08  3.78343464e-04  4.38334327e-08 -4.27765152e-06  4.38334327e-08  1.57811129e+00  4.38334327e-08  2.21098559e-01 
 4.48334327e-08 -5.12000000e+02  4.48334327e-08  3.74977418e-07  4.48334327e-08 -8.74724416e-06  4.48334327e-08 -3.77874884e-04  4.48334327e-08  4.99970966e-06  4.48334327e-08  1.57826862e+00  4.48334327e-08  2.20714267e-01 
 4.58334327e-08 -5.12000000e+02  4.58334327e-08  1.34853123e-07  4.58334327e-08  1.52834254e-05  4.58334327e-08  3.78036618e-04  4.58334327e-08 -3.97271538e-06  4.58334327e-08  1.57850104e+00  4.58334327e-08  2.20361041e-01 
 4.68334327e-08 -5.12000000e+02  4.68334327e-08  3.77355429e-07  4.68334327e-08 -8.88970801e-06  4.68334327e-08 -3.77619569e-04  4.68334327e-08  5.25931165e-06  4.68334327e-08  1.57863674e+00  4.68334327e-08  2.20023073e-01 
 4.78334327e-08 -5.12000000e+02  4.78334327e-08  1.32471250e-07  4.78334327e-08  1.50940252e-05  4.78334327e-08  3.77751611e-04  4.78334327e-08 -4.26865023e-06  4.78334327e-08  1.57884520e+00  4.78334327e-08  2.19712421e-01 
 4.88334327e-08 -5.12000000e+02  4.88334327e-08  3.79741178e-07  4.88334327e-08 -9.03836900e-06  4.88334327e-08 -3.77345755e-04  4.88334327e-08  5.01411151e-06  4.88334327e-08  1.57896768e+00  4.88334327e-08  2.19411569e-01 
 4.98334327e-08 -5.12000000e+02  4.98334327e-08  1.30081714e-07  4.98334327e-08  1.49241478e-05  4.98334327e-08  3.77476040e-04  4.98334327e-08 -4.29036914e-06  4.98334327e-08  1.57916517e+00  4.98334327e-08  2.19134140e-01 
 5.08334327e-08 -5.12000000e+02  5.08334327e-08  3.82134508e-07  5.08334327e-08 -9.16494089e-06  5.08334327e-08 -3.77089751e-04  5.08334327e-08  5.38764987e-06  5.08334327e-08  1.57928101e+00  5.08334327e-08  2.18875586e-01 
 5.11888463e-08 -5.12000000e+02  5.11888463e-08  1.36783275e-07  5.11888463e-08  4.73644853e-05  5.11888463e-08  3.86906126e-04  5.11888463e-08 -3.62482949e-06  5.11888463e-08  1.57936161e+00  5.11888463e-08  2.18790774e-01 
 5.13837538e-08 -5.12000000e+02  5.13837538e-08  4.18570315e-07  5.13837538e-08  2.58372357e-05  5.13837538e-08 -3.39771993e-04  5.13837538e-08  5.12804444e-06  5.13837538e-08  1.57934446e+00  5.13837538e-08  2.18740519e-01 
 5.14324807e-08 -5.12000000e+02  5.14324807e-08  3.07990903e-07  5.14324807e-08  5.37462872e-05  5.14324807e-08  6.17515423e-05  5.14324807e-08  4.28173198e-07  5.14324807e-08  1.57935135e+00  5.14324807e-08  2.18730496e-01 
 5.15299344e-08 -5.12000000e+02  5.15299344e-08  3.20998206e-07  5.15299344e-08  8.30604647e-05  5.15299344e-08  1.15405636e-04  5.15299344e-08  4.41436367e-08  5.15299344e-08  1.57934701e+00  5.15299344e-08  2.18706872e-01 
 5.15788554e-08 -5.12000000e+02  5.15788554e-08  3.70686195e-07  5.15788554e-08  8.43923841e-05  5.15788554e-08  9.29659671e-05  5.15788554e-08 -6.41953307e-07  5.15788554e-08  1.57930141e+00  5.15788554e-08  2.18702991e-01 
 5.16282745e-08 -5.12000000e+02  5.16282745e-08  3.85169319e-07  5.16282745e-08  1.03669777e-04  5.16282745e-08  8.85095364e-05  5.16282745e-08 -1.54848422e-07  5.16282745e-08  1.57931991e+00  5.16282745e-08  2.18722710e-01 
 5.16569092e-08 -5.12000000e+02  5.16569092e-08  4.58570496e-07  5.16569092e-08  1.91337242e-04  5.16569092e-08  2.12940258e-04  5.16569092e-08  6.31364306e-07  5.16569092e-08  1.57925343e+00  5.16569092e-08  2.18733623e-01 
 5.16823957e-08 -5.12000000e+02  5.16823957e-08  5.03926053e-07  5.16823957e-08  3.06363141e-04  5.16823957e-08  6.62026770e-04  5.16823957e-08 -2.73158155e-06  5.16823957e-08  1.57925780e+00  5.16823957e-08  2.18733327e-01 
 5.17078406e-08 -5.12000000e+02  5.17078406e-08  4.87228193e-07  5.17078406e-08  4.90278778e-04  5.17078406e-08  1.15620216e-03  5.17078406e-08 -3.77517267e-06  5.17078406e-08  1.57922218e+00  5.17078406e-08  2.18723809e-01 
 5.17270891e-08 -5.12000000e+02  5.17270891e-08  5.77324716e-07  5.17270891e-08  4.86336757e-04  5.17270891e-08  1.72608353e-03  5.17270891e-08  6.45991179e-07  5.17270891e-08  1.57920905e+00  5.17270891e-08  2.18755776e-01 
 5.17410299e-08 -5.12000000e+02  5.17410299e-08  6.83145130e-07  5.17410299e-08  2.94029463e-04  5.17410299e-08  1.05427085e-03  5.17410299e-08  2.55784611e-06  5.17410299e-08  1.57913953e+00  5.17410299e-08  2.18750999e-01 
 5.17580929e-08 -5.12000000e+02  5.17580929e-08  6.23819021e-07  5.17580929e-08  2.57520318e-04  5.17580929e-08  1.15358258e-03  5.17580929e-08  1.64731458e-06  5.17580929e-08  1.57916995e+00  5.17580929e-08  2.18809246e-01 
 5.17739621e-08 -5.12000000e+02  5.17739621e-08  6.29925668e-07  5.17739621e-08  2.59299231e-04  5.17739621e-08  3.28548188e-03  5.17739621e-08 -9.41234914e-06  5.17739621e-08  1.57913784e+00  5.17739621e-08  2.18779019e-01 
 5.17897881e-08 -5.12000000e+02  5.17897881e-08  6.48722786e-07  5.17897881e-08  2.97558423e-04  5.17897881e-08  4.36813359e-03  5.17897881e-08 -2.57014268e-06  5.17897881e-08  1.57915611e+00  5.17897881e-08  2.18785356e-01 
 5.17993709e-08 -5.12000000e+02  5.17993709e-08  8.58161219e-07  5.17993709e-08  2.63867133e-04  5.17993709e-08  1.39510570e-03  5.17993709e-08  1.65618761e-06  5.17993709e-08  1.57908683e+00  5.17993709e-08  2.18733902e-01 
 5.18107733e-08 -5.12000000e+02  5.18107733e-08  8.13465548e-07  5.18107733e-08  2.61271280e-04  5.18107733e-08  2.44684236e-03  5.18107733e-08  1.80049573e-05  5.18107733e-08  1.57912410e+00  5.18107733e-08  2.18751297e-01 
 5.18209589e-08 -5.12000000e+02  5.18209589e-08  8.21194414e-07  5.18209589e-08  2.22892334e-04  5.18209589e-08  2.19743933e-03  5.18209589e-08 -3.07676586e-06  5.18209589e-08  1.57910306e+00  5.18209589e-08  2.18799902e-01 
 5.18327537e-08 -5.12000000e+02  5.18327537e-08  7.94866041e-07  5.18327537e-08  2.08441648e-04  5.18327537e-08  2.06428597e-03  5.18327537e-08 -5.80371012e-08  5.18327537e-08  1.57908555e+00  5.18327537e-08  2.18815184e-01 
 5.18428803e-08 -5.12000000e+02  5.18428803e-08  8.24370499e-07  5.18428803e-08  1.51575075e-04  5.18428803e-08  4.19072228e-04  5.18428803e-08 -3.88391882e-06  5.18428803e-08  1.57908794e+00  5.18428803e-08  2.18758185e-01 
 5.18539848e-08 -5.12000000e+02  5.18539848e-08  8.23528823e-07  5.18539848e-08  1.75227209e-04  5.18539848e-08  9.34811878e-04  5.18539848e-08 -2.88445497e-06  5.18539848e-08  1.57906424e+00  5.18539848e-08  2.18783963e-01 
 5.18695077e-08 -5.12000000e+02  5.18695077e-08  6.37067896e-07  5.18695077e-08  1.29568785e-04  5.18695077e-08  4.11097062e-04  5.18695077e-08 -2.52566264e-06  5.18695077e-08  1.57912593e+00  5.18695077e-08  2.18765115e-01 
 5.18859648e-08 -5.12000000e+02  5.18859648e-08  6.33674680e-07  5.18859648e-08  1.54333677e-04  5.18859648e-08  8.11894565e-04  5.18859648e-08 -4.34572168e-06  5.18859648e-08  1.57910467e+00  5.18859648e-08  2.18797551e-01 
 5.19032269e-08 -5.12000000e+02  5.19032269e-08  6.06922872e-07  5.19032269e-08  1.22079028e-04  5.19032269e-08  6.32985616e-04  5.19032269e-08 -6.21084961e-06  5.19032269e-08  1.57915630e+00  5.19032269e-08  2.18744022e-01 
 5.19294546e-08 -5.12000000e+02  5.19294546e-08  4.91719900e-07  5.19294546e-08  1.62109828e-04  5.19294546e-08  1.69465275e-03  5.19294546e-08 -5.50206608e-06  5.19294546e-08  1.57917556e+00  5.19294546e-08  2.18756568e-01 
 5.19539396e-08 -5.12000000e+02  5.19539396e-08  5.03539106e-07  5.19539396e-08  1.53798637e-04  5.19539396e-08  2.26606901e-03  5.19539396e-08  3.40906234e-06  5.19539396e-08  1.57920934e+00  5.19539396e-08  2.18697647e-01 
 5.19725595e-08 -5.12000000e+02  5.19725595e-08  5.80597497e-07  5.19725595e-08  2.09683673e-04  5.19725595e-08  3.08472394e-03  5.19725595e-08  1.50368785e-05  5.19725595e-08  1.57916178e+00  5.19725595e-08  2.18697674e-01 
 5.19858500e-08 -5.12000000e+02  5.19858500e-08  7.19182007e-07  5.19858500e-08  2.07105984e-04  5.19858500e-08  1.09600667e-04  5.19858500e-08  1.12304419e-05  5.19858500e-08  1.57914475e+00  5.19858500e-08  2.18675269e-01 
 5.20019190e-08 -5.12000000e+02  5.20019190e-08  6.07009702e-07  5.20019190e-08  2.55627680e-04  5.20019190e-08  8.14830364e-04  5.20019190e-08  1.80141140e-05  5.20019190e-08  1.57913546e+00  5.20019190e-08  2.18658562e-01 
 5.20181164e-08 -5.12000000e+02  5.20181164e-08  7.10171525e-07  5.20181164e-08  1.70954831e-04  5.20181164e-08 -3.92621641e-04  5.20181164e-08  5.19961447e-06  5.20181164e-08  1.57917168e+00  5.20181164e-08  2.18609710e-01 
 5.20359148e-08 -5.12000000e+02  5.20359148e-08  4.72010475e-07  5.20359148e-08  2.97897584e-04  5.20359148e-08  5.25507616e-04  5.20359148e-08  1.30882942e-05  5.20359148e-08  1.57916448e+00  5.20359148e-08  2.18530566e-01 
 5.20581273e-08 -5.12000000e+02  5.20581273e-08  6.94084384e-07  5.20581273e-08  9.78574985e-05  5.20581273e-08 -4.73353613e-04  5.20581273e-08 -7.26947489e-06  5.20581273e-08  1.57922120e+00  5.20581273e-08  2.18531756e-01 
 5.20813667e-08 -5.12000000e+02  5.20813667e-08  3.32143709e-07  5.20813667e-08  1.39700023e-04  5.20813667e-08  4.77718546e-04  5.20813667e-08  1.59313767e-05  5.20813667e-08  1.57921161e+00  5.20813667e-08  2.18524162e-01 
 5.21070926e-08 -5.12000000e+02  5.21070926e-08  6.91247877e-07  5.21070926e-08 -1.84580600e-05  5.21070926e-08 -4.70927119e-04  5.21070926e-08 -1.22383610e-05  5.21070926e-08  1.57927098e+00  5.21070926e-08  2.18585690e-01 
 5.21406218e-08 -5.12000000e+02  5.21406218e-08  2.39103952e-07  5.21406218e-08  8.68750386e-05  5.21406218e-08  4.69659130e-04  5.21406218e-08  1.77206763e-05  5.21406218e-08  1.57928144e+00  5.21406218e-08  2.18589351e-01 
 5.21719518e-08 -5.12000000e+02  5.21719518e-08  6.43620204e-07  5.21719518e-08 -4.54866291e-05  5.21719518e-08 -4.66737785e-04  5.21719518e-08 -9.82160385e-06  5.21719518e-08  1.57932644e+00  5.21719518e-08  2.18556394e-01 
 5.22346117e-08 -5.12000000e+02  5.22346117e-08  1.60371070e-07  5.22346117e-08  6.77761446e-05  5.22346117e-08  4.66749669e-04  5.22346117e-08  1.19115750e-05  5.22346117e-08  1.57935983e+00  5.22346117e-08  2.18590002e-01 
 5.23129536e-08 -5.12000000e+02  5.23129536e-08  5.16622502e-07  5.23129536e-08 -5.72968806e-05  5.23129536e-08 -4.65513149e-04  5.23129536e-08 -1.12379786e-05  5.23129536e-08  1.57942534e+00  5.23129536e-08  2.18542002e-01 
 5.24249427e-08 -5.12000000e+02  5.24249427e-08  1.22504410e-07  5.24249427e-08  6.38891551e-05  5.24249427e-08  4.65565381e-04  5.24249427e-08  1.08951567e-05  5.24249427e-08  1.57944680e+00  5.24249427e-08  2.18523297e-01 
 5.25705866e-08 -5.12000000e+02  5.25705866e-08  4.73806463e-07  5.25705866e-08 -5.79215887e-05  5.25705866e-08 -4.64818954e-04  5.25705866e-08 -8.89663266e-06  5.25705866e-08  1.57956389e+00  5.25705866e-08  2.18472004e-01 
 5.28618743e-08 -5.12000000e+02  5.28618743e-08  9.11854324e-08  5.28618743e-08  6.36753176e-05  5.28618743e-08  4.65083009e-04  5.28618743e-08  1.10621116e-05  5.28618743e-08  1.57955201e+00  5.28618743e-08  2.18408102e-01 
 5.34444497e-08 -5.12000000e+02  5.34444497e-08  4.39379673e-07  5.34444497e-08 -5.80574945e-05  5.34444497e-08 -4.64663055e-04  5.34444497e-08 -9.38385380e-06  5.34444497e-08  1.57970424e+00  5.34444497e-08  2.18263529e-01 
 5.44444497e-08 -5.12000000e+02  5.44444497e-08  7.65635250e-08  5.44444497e-08  6.34710437e-05  5.44444497e-08  4.64926402e-04  5.44444497e-08  1.06494018e-05  5.44444497e-08  1.57975746e+00  5.44444497e-08  2.18071432e-01 
 5.54444497e-08 -5.12000000e+02  5.54444497e-08  4.34010354e-07  5.54444497e-08 -5.82249846e-05  5.54444497e-08 -4.64607510e-04  5.54444497e-08 -9.38759108e-06  5.54444497e-08  1.57995052e+00  5.54444497e-08  2.17863111e-01 
 5.64444497e-08 -5.12000000e+02  5.64444497e-08  7.74493711e-08  5.64444497e-08  6.33211988e-05  5.64444497e-08  4.64833489e-04  5.64444497e-08  1.04188506e-05  5.64444497e-08  1.57999057e+00  5.64444497e-08  2.17690398e-01 
 5.74444497e-08 -5.12000000e+02  5.74444497e-08  4.33116734e-07  5.74444497e-08 -5.83341017e-05  5.74444497e-08 -4.64537683e-04  5.74444497e-08 -9.42709984e-06  5.74444497e-08  1.58017874e+00  5.74444497e-08  2.17507548e-01 
 5.84444497e-08 -5.12000000e+02  5.84444497e-08  7.83506393e-08  5.84444497e-08  6.31921345e-05  5.84444497e-08  4.64753428e-04  5.84444497e-08  1.06386033e-05  5.84444497e-08  1.58022307e+00  5.84444497e-08  2.17360290e-01 
 5.94444497e-08 -5.12000000e+02  5.94444497e-08  4.32207938e-07  5.94444497e-08 -5.84367763e-05  5.94444497e-08 -4.64459058e-04  5.94444497e-08 -9.24860624e-06  5.94444497e-08  1.58039787e+00  5.94444497e-08  2.17194990e-01 
 5.97945686e-08 -5.12000000e+02  5.97945686e-08  9.21689075e-08  5.97945686e-08  6.31141770e-05  5.97945686e-08  4.64594726e-04  5.97945686e-08  9.92677143e-06  5.97945686e-08  1.58035379e+00  5.97945686e-08  2.17149295e-01 
 6.00341530e-08 -5.12000000e+02  6.00341530e-08  4.48763037e-07  6.00341530e-08 -8.03958649e-05  6.00341530e-08 -4.69976521e-04  6.00341530e-08 -1.04504826e-05  6.00341530e-08  1.58044409e+00  6.00341530e-08  2.17104959e-01 
 6.01819896e-08 -5.12000000e+02  6.01819896e-08  1.22749179e-07  6.01819896e-08 -6.21378628e-05  6.01819896e-08  4.30000191e-04  6.01819896e-08  9.77622361e-06  6.01819896e-08  1.58038467e+00  6.01819896e-08  2.17093087e-01 
 6.02907552e-08 -5.12000000e+02  6.02907552e-08  4.71949988e-07  6.02907552e-08 -9.45121190e-05  6.02907552e-08 -4.71222560e-04  6.02907552e-08 -1.02280144e-05  6.02907552e-08  1.58045844e+00  6.02907552e-08  2.17067438e-01 
 6.04154880e-08 -5.12000000e+02  6.04154880e-08  1.40066488e-07  6.04154880e-08 -4.07680219e-05  6.04154880e-08  4.95923062e-04  6.04154880e-08  1.06520285e-05  6.04154880e-08  1.58040783e+00  6.04154880e-08  2.17056223e-01 
 6.05463267e-08 -5.12000000e+02  6.05463267e-08  4.53693743e-07  6.05463267e-08 -4.46674106e-05  6.05463267e-08 -2.50934107e-04  6.05463267e-08 -1.24702136e-05  6.05463267e-08  1.58048389e+00  6.05463267e-08  2.17041144e-01 
 6.06272451e-08 -5.12000000e+02  6.06272451e-08  1.79209359e-07  6.06272451e-08  2.64472055e-05  6.06272451e-08  1.43846264e-03  6.06272451e-08  1.02281768e-05  6.06272451e-08  1.58041851e+00  6.06272451e-08  2.17027318e-01 
 6.06853376e-08 -5.12000000e+02  6.06853376e-08  4.95700214e-07  6.06853376e-08 -1.32823579e-05  6.06853376e-08  2.60245693e-03  6.06853376e-08 -1.28304546e-05  6.06853376e-08  1.58055198e+00  6.06853376e-08  2.17020415e-01 
 6.07183911e-08 -5.12000000e+02  6.07183911e-08  3.20037530e-07  6.07183911e-08  4.04417786e-05  6.07183911e-08  4.94497121e-03  6.07183911e-08  1.06005387e-05  6.07183911e-08  1.58052675e+00  6.07183911e-08  2.17014325e-01 
 6.07370390e-08 -5.12000000e+02  6.07370390e-08  6.64789698e-07  6.07370390e-08 -5.35789626e-06  6.07370390e-08  2.17103372e-03  6.07370390e-08 -1.09348757e-05  6.07370390e-08  1.58068801e+00  6.07370390e-08  2.17005176e-01 
 6.07522564e-08 -5.12000000e+02  6.07522564e-08  6.05858046e-07  6.07522564e-08  4.42454117e-05  6.07522564e-08  1.60888498e-03  6.07522564e-08  1.02393300e-05  6.07522564e-08  1.58039384e+00  6.07522564e-08  2.17003789e-01 
 6.07691066e-08 -5.12000000e+02  6.07691066e-08  6.43857301e-07  6.07691066e-08  7.86776472e-07  6.07691066e-08 -2.66085651e-04  6.07691066e-08 -1.43154357e-05  6.07691066e-08  1.58042370e+00  6.07691066e-08  2.16990474e-01 
 6.07847239e-08 -5.12000000e+02  6.07847239e-08  6.43056697e-07  6.07847239e-08  4.84567522e-05  6.07847239e-08  1.06652003e-03  6.07847239e-08  9.93884943e-06  6.07847239e-08  1.58052105e+00  6.07847239e-08  2.16952247e-01 
 6.07995211e-08 -5.12000000e+02  6.07995211e-08  6.47100341e-07  6.07995211e-08  8.31619803e-06  6.07995211e-08 -5.05032181e-04  6.07995211e-08 -1.18818149e-05  6.07995211e-08  1.58055479e+00  6.07995211e-08  2.16943695e-01 
 6.08169262e-08 -5.12000000e+02  6.08169262e-08  6.44816804e-07  6.08169262e-08  5.61355415e-05  6.08169262e-08  9.19043811e-04  6.08169262e-08  1.82892749e-05  6.08169262e-08  1.58064535e+00  6.08169262e-08  2.16953756e-01 
 6.08335809e-08 -5.12000000e+02  6.08335809e-08  5.71784520e-07  6.08335809e-08  1.86484961e-05  6.08335809e-08 -6.16024020e-04  6.08335809e-08 -1.63195622e-05  6.08335809e-08  1.58040009e+00  6.08335809e-08  2.16953595e-01 
 6.08552569e-08 -5.12000000e+02  6.08552569e-08  5.99158281e-07  6.08552569e-08  5.99765829e-05  6.08552569e-08  1.17909203e-03  6.08552569e-08  1.01341408e-05  6.08552569e-08  1.58044532e+00  6.08552569e-08  2.16914746e-01 
 6.08787217e-08 -5.12000000e+02  6.08787217e-08  4.50613769e-07  6.08787217e-08  1.49785730e-05  6.08787217e-08 -2.20894294e-04  6.08787217e-08 -1.01648204e-05  6.08787217e-08  1.58050180e+00  6.08787217e-08  2.16897198e-01 
 6.08999287e-08 -5.12000000e+02  6.08999287e-08  6.12880928e-07  6.08999287e-08  5.10106368e-05  6.08999287e-08  1.17914251e-03  6.08999287e-08  1.55563661e-05  6.08999287e-08  1.58055488e+00  6.08999287e-08  2.16906377e-01 
 6.09193143e-08 -5.12000000e+02  6.09193143e-08  4.99317279e-07  6.09193143e-08  6.69194182e-06  6.09193143e-08 -5.15752769e-04  6.09193143e-08 -3.96457816e-06  6.09193143e-08  1.58062103e+00  6.09193143e-08  2.16915947e-01 
 6.09361552e-08 -5.12000000e+02  6.09361552e-08  6.87550274e-07  6.09361552e-08  4.13449725e-05  6.09361552e-08  1.19602109e-03  6.09361552e-08  1.15375640e-05  6.09361552e-08  1.58040092e+00  6.09361552e-08  2.16912330e-01 
 6.09514811e-08 -5.12000000e+02  6.09514811e-08  5.86294667e-07  6.09514811e-08 -3.33372430e-06  6.09514811e-08 -3.87971137e-04  6.09514811e-08 -1.17877509e-05  6.09514811e-08  1.58041192e+00  6.09514811e-08  2.16904973e-01 
 6.09615802e-08 -5.12000000e+02  6.09615802e-08  8.98219657e-07  6.09615802e-08  3.31406778e-05  6.09615802e-08  9.85247102e-04  6.09615802e-08  4.50103466e-06  6.09615802e-08  1.58051093e+00  6.09615802e-08  2.16899435e-01 
 6.09706755e-08 -5.12000000e+02  6.09706755e-08  8.69159749e-07  6.09706755e-08 -7.60722068e-06  6.09706755e-08 -4.73114149e-04  6.09706755e-08 -4.23735990e-06  6.09706755e-08  1.58056092e+00  6.09706755e-08  2.16904612e-01 
 6.09806937e-08 -5.12000000e+02  6.09806937e-08  9.02557907e-07  6.09806937e-08  2.82587578e-05  6.09806937e-08  1.00797102e-03  6.09806937e-08  9.46040601e-06  6.09806937e-08  1.58064069e+00  6.09806937e-08  2.16910756e-01 
 6.09912158e-08 -5.12000000e+02  6.09912158e-08  7.90038523e-07  6.09912158e-08 -8.64738773e-06  6.09912158e-08 -6.69052844e-04  6.09912158e-08 -9.31588821e-06  6.09912158e-08  1.58068193e+00  6.09912158e-08  2.16914641e-01 
 6.10025675e-08 -5.12000000e+02  6.10025675e-08  8.27714880e-07  6.10025675e-08  4.86269322e-05  6.10025675e-08  8.10007069e-04  6.10025675e-08 -1.89749040e-06  6.10025675e-08  1.58041376e+00  6.10025675e-08  2.16903002e-01 
 6.10209461e-08 -5.12000000e+02  6.10209461e-08  5.58716984e-07  6.10209461e-08  8.59312854e-05  6.10209461e-08 -7.30534386e-04  6.10209461e-08 -9.96640264e-07  6.10209461e-08  1.58040887e+00  6.10209461e-08  2.16884605e-01 
 6.10401888e-08 -5.12000000e+02  6.10401888e-08  6.02065028e-07  6.10401888e-08  1.11785680e-04  6.10401888e-08  7.58830919e-04  6.10401888e-08 -8.70783362e-07  6.10401888e-08  1.58054112e+00  6.10401888e-08  2.16886934e-01 
 6.10644031e-08 -5.12000000e+02  6.10644031e-08  4.80736938e-07  6.10644031e-08  1.93385553e-04  6.10644031e-08 -7.34275486e-04  6.10644031e-08 -6.13934714e-06  6.10644031e-08  1.58053846e+00  6.10644031e-08  2.16897228e-01 
 6.10841045e-08 -5.12000000e+02  6.10841045e-08  5.88960576e-07  6.10841045e-08  1.70639733e-04  6.10841045e-08  7.42233863e-04  6.10841045e-08 -4.87040674e-06  6.10841045e-08  1.58048030e+00  6.10841045e-08  2.16910933e-01 
 6.11065664e-08 -5.12000000e+02  6.11065664e-08  5.07690220e-07  6.11065664e-08  1.14384885e-04  6.11065664e-08 -7.31607688e-04  6.11065664e-08 -8.27426538e-06  6.11065664e-08  1.58048498e+00  6.11065664e-08  2.16922412e-01 
 6.11238354e-08 -5.12000000e+02  6.11238354e-08  6.22961247e-07  6.11238354e-08  1.55697755e-04  6.11238354e-08  7.35090452e-04  6.11238354e-08 -6.73415130e-06  6.11238354e-08  1.58041641e+00  6.11238354e-08  2.16919074e-01 
 6.11439204e-08 -5.12000000e+02  6.11439204e-08  5.49128096e-07  6.11439204e-08  3.36213397e-04  6.11439204e-08 -7.24375492e-04  6.11439204e-08 -8.62906004e-06  6.11439204e-08  1.58058174e+00  6.11439204e-08  2.16927729e-01 
 6.11675085e-08 -5.12000000e+02  6.11675085e-08  5.25812970e-07  6.11675085e-08  4.19181195e-04  6.11675085e-08  7.33138707e-04  6.11675085e-08 -2.73853941e-06  6.11675085e-08  1.58055187e+00  6.11675085e-08  2.16970701e-01 
 6.11923229e-08 -5.12000000e+02  6.11923229e-08  4.91549543e-07  6.11923229e-08  4.02771620e-04  6.11923229e-08 -7.23006713e-04  6.11923229e-08 -5.21696539e-06  6.11923229e-08  1.58049992e+00  6.11923229e-08  2.16968747e-01 
 6.12152259e-08 -5.12000000e+02  6.12152259e-08  5.31262038e-07  6.12152259e-08  4.07849182e-04  6.12152259e-08  7.14827373e-04  6.12152259e-08  2.62417118e-06  6.12152259e-08  1.58046968e+00  6.12152259e-08  2.16957812e-01 
 6.12375725e-08 -5.12000000e+02  6.12375725e-08  5.20384702e-07  6.12375725e-08  3.50635124e-04  6.12375725e-08 -8.06575728e-04  6.12375725e-08 -4.79671005e-06  6.12375725e-08  1.58056375e+00  6.12375725e-08  2.16958370e-01 
 6.12624195e-08 -5.12000000e+02  6.12624195e-08  5.10553096e-07  6.12624195e-08  2.15703715e-04  6.12624195e-08  7.57601727e-04  6.12624195e-08  3.07066828e-07  6.12624195e-08  1.58053853e+00  6.12624195e-08  2.16952556e-01 
 6.12816099e-08 -5.12000000e+02  6.12816099e-08  5.62153164e-07  6.12816099e-08  1.24634196e-04  6.12816099e-08 -5.67903231e-04  6.12816099e-08 -6.40477889e-06  6.12816099e-08  1.58050598e+00  6.12816099e-08  2.16953669e-01 
 6.13041074e-08 -5.12000000e+02  6.13041074e-08  5.40310089e-07  6.13041074e-08  8.27477749e-05  6.13041074e-08  9.82236840e-04  6.13041074e-08 -4.81608086e-06  6.13041074e-08  1.58048477e+00  6.13041074e-08  2.16950801e-01 
 6.13334376e-08 -5.12000000e+02  6.13334376e-08  4.52011157e-07  6.13334376e-08  3.28660812e-05  6.13334376e-08 -2.53609856e-04  6.13334376e-08  1.34126259e-06  6.13334376e-08  1.58049167e+00  6.13334376e-08  2.16949138e-01 
 6.13657991e-08 -5.12000000e+02  6.13657991e-08  4.55406744e-07  6.13657991e-08  3.44948723e-05  6.13657991e-08  2.33758651e-03  6.13657991e-08 -3.50875693e-06  6.13657991e-08  1.58059506e+00  6.13657991e-08  2.16935682e-01 
 6.13915363e-08 -5.12000000e+02  6.13915363e-08  4.79921247e-07  6.13915363e-08  8.12142187e-06  6.13915363e-08  3.12616955e-03  6.13915363e-08 -4.21033177e-06  6.13915363e-08  1.58058117e+00  6.13915363e-08  2.16923062e-01 
 6.14129646e-08 -5.12000000e+02  6.14129646e-08  5.52347933e-07  6.14129646e-08  2.62044561e-05  6.14129646e-08  2.87106214e-03  6.14129646e-08 -5.01997907e-06  6.14129646e-08  1.58053284e+00  6.14129646e-08  2.16924193e-01 
 6.14379757e-08 -5.12000000e+02  6.14379757e-08  4.86111870e-07  6.14379757e-08  2.97412784e-06  6.14379757e-08 -3.54384967e-04  6.14379757e-08 -1.35862724e-06  6.14379757e-08  1.58050887e+00  6.14379757e-08  2.16921789e-01 
 6.14605143e-08 -5.12000000e+02  6.14605143e-08  5.52615825e-07  6.14605143e-08  2.31768721e-05  6.14605143e-08  8.58911605e-04  6.14605143e-08 -5.82414385e-06  6.14605143e-08  1.58059043e+00  6.14605143e-08  2.16905476e-01 
 6.14847680e-08 -5.12000000e+02  6.14847680e-08  4.58765463e-07  6.14847680e-08 -6.41420751e-08  6.14847680e-08 -8.67718275e-04  6.14847680e-08 -5.62239868e-06  6.14847680e-08  1.58057902e+00  6.14847680e-08  2.16894964e-01 
 6.15102667e-08 -5.12000000e+02  6.15102667e-08  5.84529020e-07  6.15102667e-08  2.07609482e-05  6.15102667e-08  8.91168931e-04  6.15102667e-08 -1.03319785e-05  6.15102667e-08  1.58054203e+00  6.15102667e-08  2.16898750e-01 
 6.15612641e-08 -5.12000000e+02  6.15612641e-08  2.64103968e-07  6.15612641e-08 -3.27519245e-06  6.15612641e-08 -8.92678371e-04  6.15612641e-08  4.09690398e-06  6.15612641e-08  1.58054664e+00  6.15612641e-08  2.16892741e-01 
 6.16632589e-08 -5.12000000e+02  6.16632589e-08  4.33614273e-07  6.16632589e-08  1.63757897e-05  6.16632589e-08  8.95296252e-04  6.16632589e-08 -8.57160946e-06  6.16632589e-08  1.58058891e+00  6.16632589e-08  2.16882084e-01 
 6.18408856e-08 -5.12000000e+02  6.18408856e-08  1.55989596e-07  6.18408856e-08 -7.87308225e-06  6.18408856e-08 -8.95114701e-04  6.18408856e-08  8.48183121e-06  6.18408856e-08  1.58059800e+00  6.18408856e-08  2.16892405e-01 
 6.21961389e-08 -5.12000000e+02  6.21961389e-08  3.99796402e-07  6.21961389e-08  1.33671298e-05  6.21961389e-08  8.96141462e-04  6.21961389e-08 -7.57852137e-06  6.21961389e-08  1.58063207e+00  6.21961389e-08  2.16818782e-01 
 6.25764567e-08 -5.12000000e+02  6.25764567e-08  1.29354221e-07  6.25764567e-08 -8.96639148e-06  6.25764567e-08 -8.95891910e-04  6.25764567e-08  8.82148441e-06  6.25764567e-08  1.58067081e+00  6.25764567e-08  2.16792211e-01 
 6.32503829e-08 -5.12000000e+02  6.32503829e-08  3.97150964e-07  6.32503829e-08  1.33398006e-05  6.32503829e-08  8.96510488e-04  6.32503829e-08 -7.17546500e-06  6.32503829e-08  1.58073428e+00  6.32503829e-08  2.16696248e-01 
 6.42503829e-08 -5.12000000e+02  6.42503829e-08  1.15562025e-07  6.42503829e-08 -9.05309205e-06  6.42503829e-08 -8.96227577e-04  6.42503829e-08  8.68835457e-06  6.42503829e-08  1.58082002e+00  6.42503829e-08  2.16583751e-01 
 6.52503829e-08 -5.12000000e+02  6.52503829e-08  3.96959580e-07  6.52503829e-08  1.32607415e-05  6.52503829e-08  8.96678084e-04  6.52503829e-08 -7.51386895e-06  6.52503829e-08  1.58090466e+00  6.52503829e-08  2.16459120e-01 
 6.62503829e-08 -5.12000000e+02  6.62503829e-08  1.12557747e-07  6.62503829e-08 -9.15735406e-06  6.62503829e-08 -8.96469066e-04  6.62503829e-08  8.45217741e-06  6.62503829e-08  1.58098911e+00  6.62503829e-08  2.16361029e-01 
 6.72503829e-08 -5.12000000e+02  6.72503829e-08  3.99964193e-07  6.72503829e-08  1.31678269e-05  6.72503829e-08  8.96863874e-04  6.72503829e-08 -7.54855398e-06  6.72503829e-08  1.58106889e+00  6.72503829e-08  2.16262186e-01 
 6.82503829e-08 -5.12000000e+02  6.82503829e-08  1.09552841e-07  6.82503829e-08 -9.22343190e-06  6.82503829e-08 -8.96681979e-04  6.82503829e-08  8.72335501e-06  6.82503829e-08  1.58114842e+00  6.82503829e-08  2.16177359e-01 
 6.92503829e-08 -5.12000000e+02  6.92503829e-08  4.02969406e-07  6.92503829e-08  1.31176346e-05  6.92503829e-08  8.97045129e-04  6.92503829e-08 -7.58070527e-06  6.92503829e-08  1.58122024e+00  6.92503829e-08  2.16076509e-01 
 7.02503829e-08 -5.12000000e+02  7.02503829e-08  1.06547396e-07  7.02503829e-08 -9.30997715e-06  7.02503829e-08 -8.96870438e-04  7.02503829e-08  8.72802977e-06  7.02503829e-08  1.58129490e+00  7.02503829e-08  2.15999167e-01 
 7.08730836e-08 -5.12000000e+02  7.08730836e-08  4.10868767e-07  7.08730836e-08  1.30511684e-05  7.08730836e-08  8.97285785e-04  7.08730836e-08 -7.53473537e-06  7.08730836e-08  1.58133527e+00  7.08730836e-08  2.15949676e-01 
 7.11263150e-08 -5.12000000e+02  7.11263150e-08  1.16452394e-07  7.11263150e-08  2.25259076e-05  7.11263150e-08 -8.88176801e-04  7.11263150e-08  8.86297523e-06  7.11263150e-08  1.58135328e+00  7.11263150e-08  2.15929739e-01 
 7.14324648e-08 -5.12000000e+02  7.14324648e-08  4.32593048e-07  7.14324648e-08  5.80480471e-05  7.14324648e-08  9.66270764e-04  7.14324648e-08 -7.71472482e-06  7.14324648e-08  1.58137425e+00  7.14324648e-08  2.15909861e-01 
 7.14818121e-08 -5.12000000e+02  7.14818121e-08  3.05699833e-07  7.14818121e-08  6.58201779e-05  7.14818121e-08  9.83292819e-05  7.14818121e-08  9.89023915e-07  7.14818121e-08  1.58137738e+00  7.14818121e-08  2.15913223e-01 
 7.15805067e-08 -5.12000000e+02  7.15805067e-08  3.21590908e-07  7.15805067e-08  8.74829545e-05  7.15805067e-08  9.52035211e-05  7.15805067e-08  9.73826515e-07  7.15805067e-08  1.58138755e+00  7.15805067e-08  2.15914208e-01 
 7.16244048e-08 -5.12000000e+02  7.16244048e-08  3.83738358e-07  7.16244048e-08  9.67694000e-05  7.16244048e-08  8.54652539e-05  7.16244048e-08  2.55830779e-06  7.16244048e-08  1.58139906e+00  7.16244048e-08  2.15946899e-01 
 7.16558498e-08 -5.12000000e+02  7.16558498e-08  4.57490737e-07  7.16558498e-08  1.99561185e-04  7.16558498e-08  2.25614872e-04  7.16558498e-08  2.57147115e-06  7.16558498e-08  1.58140783e+00  7.16558498e-08  2.15971565e-01 
 7.16818082e-08 -5.12000000e+02  7.16818082e-08  4.82030007e-07  7.16818082e-08  3.07507050e-04  7.16818082e-08  6.82343422e-04  7.16818082e-08  4.13567257e-06  7.16818082e-08  1.58141521e+00  7.16818082e-08  2.15990985e-01 
 7.17077393e-08 -5.12000000e+02  7.17077393e-08  4.98923454e-07  7.17077393e-08  5.06866484e-04  7.17077393e-08  1.19012867e-03  7.17077393e-08  4.29564854e-06  7.17077393e-08  1.58142301e+00  7.17077393e-08  2.16004181e-01 
 7.17266249e-08 -5.12000000e+02  7.17266249e-08  5.69377477e-07  7.17266249e-08  4.52904846e-04  7.17266249e-08  1.73552806e-03  7.17266249e-08  2.37441469e-06  7.17266249e-08  1.58142587e+00  7.17266249e-08  2.16020614e-01 
 7.17410932e-08 -5.12000000e+02  7.17410932e-08  6.78513710e-07  7.17410932e-08  2.83373410e-04  7.17410932e-08  9.40394658e-04  7.17410932e-08  1.57996343e-06  7.17410932e-08  1.58142585e+00  7.17410932e-08  2.16058720e-01 
 7.17581278e-08 -5.12000000e+02  7.17581278e-08  6.15949032e-07  7.17581278e-08  2.51414326e-04  7.17581278e-08  1.38289987e-03  7.17581278e-08  1.33001059e-06  7.17581278e-08  1.58143442e+00  7.17581278e-08  2.16059437e-01 
 7.17743390e-08 -5.12000000e+02  7.17743390e-08  6.27772216e-07  7.17743390e-08  2.68691661e-04  7.17743390e-08  3.43210205e-03  7.17743390e-08  7.02714503e-06  7.17743390e-08  1.58143741e+00  7.17743390e-08  2.16043980e-01 
 7.17933782e-08 -5.12000000e+02  7.17933782e-08  5.83132683e-07  7.17933782e-08  2.88995697e-04  7.17933782e-08  3.54473849e-03  7.17933782e-08 -4.62163620e-06  7.17933782e-08  1.58144742e+00  7.17933782e-08  2.16041912e-01 
 7.18035321e-08 -5.12000000e+02  7.18035321e-08  8.21548779e-07  7.18035321e-08  2.55459825e-04  7.18035321e-08  1.17990137e-03  7.18035321e-08 -3.86296746e-07  7.18035321e-08  1.58143894e+00  7.18035321e-08  2.16026028e-01 
 7.18159701e-08 -5.12000000e+02  7.18159701e-08  7.75483332e-07  7.18159701e-08  2.34543402e-04  7.18159701e-08  2.79059399e-03  7.18159701e-08  2.74804021e-06  7.18159701e-08  1.58144895e+00  7.18159701e-08  2.16069813e-01 
 7.18285921e-08 -5.12000000e+02  7.18285921e-08  7.08074919e-07  7.18285921e-08  2.09230536e-04  7.18285921e-08  2.03270235e-03  7.18285921e-08  6.93691186e-06  7.18285921e-08  1.58145984e+00  7.18285921e-08  2.16067332e-01 
 7.18392908e-08 -5.12000000e+02  7.18392908e-08  8.36523113e-07  7.18392908e-08  1.56468943e-04  7.18392908e-08  1.12647870e-03  7.18392908e-08 -7.91628408e-06  7.18392908e-08  1.58145617e+00  7.18392908e-08  2.16060355e-01 
 7.18511613e-08 -5.12000000e+02  7.18511613e-08  7.55450229e-07  7.18511613e-08  1.68469919e-04  7.18511613e-08  7.36308073e-04  7.18511613e-08  9.01201726e-07  7.18511613e-08  1.58145904e+00  7.18511613e-08  2.16058194e-01 
 7.18658677e-08 -5.12000000e+02  7.18658677e-08  6.85249848e-07  7.18658677e-08  1.35122506e-04  7.18658677e-08  8.35944987e-04  7.18658677e-08 -7.81792989e-06  7.18658677e-08  1.58146934e+00  7.18658677e-08  2.16075892e-01 
 7.18812901e-08 -5.12000000e+02  7.18812901e-08  6.34641529e-07  7.18812901e-08  1.47466769e-04  7.18812901e-08  8.57572622e-04  7.18812901e-08  1.27216571e-05  7.18812901e-08  1.58147880e+00  7.18812901e-08  2.16068323e-01 
 7.19009143e-08 -5.12000000e+02  7.19009143e-08  5.88202527e-07  7.19009143e-08  1.26330569e-04  7.19009143e-08  9.71980803e-04  7.19009143e-08 -1.71696131e-05  7.19009143e-08  1.58147705e+00  7.19009143e-08  2.16072949e-01 
 7.19245863e-08 -5.12000000e+02  7.19245863e-08  4.92577894e-07  7.19245863e-08  1.52064651e-04  7.19245863e-08  1.53871243e-03  7.19245863e-08  1.50794059e-05  7.19245863e-08  1.58146710e+00  7.19245863e-08  2.16061224e-01 
 7.19468577e-08 -5.12000000e+02  7.19468577e-08  5.51577770e-07  7.19468577e-08  1.50825221e-04  7.19468577e-08  2.01171645e-03  7.19468577e-08 -2.09576196e-06  7.19468577e-08  1.58147163e+00  7.19468577e-08  2.16034590e-01 
 7.19658667e-08 -5.12000000e+02  7.19658667e-08  5.54094590e-07  7.19658667e-08  1.92388846e-04  7.19658667e-08  3.19528996e-03  7.19658667e-08  2.98852102e-05  7.19658667e-08  1.58146717e+00  7.19658667e-08  2.15985353e-01 
 7.19827011e-08 -5.12000000e+02  7.19827011e-08  6.41666004e-07  7.19827011e-08  2.05285977e-04  7.19827011e-08  6.53099983e-04  7.19827011e-08  7.65780650e-07  7.19827011e-08  1.58146389e+00  7.19827011e-08  2.15941169e-01 
 7.20014244e-08 -5.12000000e+02  7.20014244e-08  5.53315371e-07  7.20014244e-08  2.53657123e-04  7.20014244e-08  4.64482699e-04  7.20014244e-08  2.83010673e-05  7.20014244e-08  1.58146201e+00  7.20014244e-08  2.15879765e-01 
 7.20198164e-08 -5.12000000e+02  7.20198164e-08  6.23536128e-07  7.20198164e-08  1.72216731e-04  7.20198164e-08 -1.70107470e-04  7.20198164e-08  1.27292860e-05  7.20198164e-08  1.58146623e+00  7.20198164e-08  2.15852377e-01 
 7.20385042e-08 -5.12000000e+02  7.20385042e-08  5.51619520e-07  7.20385042e-08  2.96454425e-04  7.20385042e-08  3.27458000e-04  7.20385042e-08  1.36361208e-05  7.20385042e-08  1.58146667e+00  7.20385042e-08  2.15821773e-01 
 7.20609590e-08 -5.12000000e+02  7.20609590e-08  5.44253678e-07  7.20609590e-08  8.00286416e-05  7.20609590e-08 -3.14267900e-04  7.20609590e-08 -3.72188729e-06  7.20609590e-08  1.58146819e+00  7.20609590e-08  2.15812330e-01 
 7.20844114e-08 -5.12000000e+02  7.20844114e-08  5.33109839e-07  7.20844114e-08  1.37101099e-04  7.20844114e-08  3.38542766e-04  7.20844114e-08  4.67732143e-06  7.20844114e-08  1.58146556e+00  7.20844114e-08  2.15821353e-01 
 7.21077896e-08 -5.12000000e+02  7.21077896e-08  4.56070007e-07  7.21077896e-08 -2.35296633e-05  7.21077896e-08 -3.46406498e-04  7.21077896e-08  3.91364419e-06  7.21077896e-08  1.58146282e+00  7.21077896e-08  2.15858713e-01 
 7.21389802e-08 -5.12000000e+02  7.21389802e-08  5.51153256e-07  7.21389802e-08  9.12741449e-05  7.21389802e-08  3.54364176e-04  7.21389802e-08  4.64807909e-06  7.21389802e-08  1.58147786e+00  7.21389802e-08  2.15868194e-01 
 7.21717602e-08 -5.12000000e+02  7.21717602e-08  3.08412177e-07  7.21717602e-08 -5.05196302e-05  7.21717602e-08 -3.57968299e-04  7.21717602e-08 -5.25026402e-06  7.21717602e-08  1.58147186e+00  7.21717602e-08  2.15825240e-01 
 7.22373202e-08 -5.12000000e+02  7.22373202e-08  4.97306642e-07  7.22373202e-08  7.08434433e-05  7.22373202e-08  3.60631611e-04  7.22373202e-08  5.05980855e-06  7.22373202e-08  1.58147728e+00  7.22373202e-08  2.15886214e-01 
 7.23159035e-08 -5.12000000e+02  7.23159035e-08  1.63960764e-07  7.23159035e-08 -6.24503550e-05  7.23159035e-08 -3.61489049e-04  7.23159035e-08 -1.11576014e-06  7.23159035e-08  1.58146407e+00  7.23159035e-08  2.15873194e-01 
 7.24273345e-08 -5.12000000e+02  7.24273345e-08  4.82596912e-07  7.24273345e-08  6.71952670e-05  7.24273345e-08  3.62953716e-04  7.24273345e-08  4.00296487e-06  7.24273345e-08  1.58147523e+00  7.24273345e-08  2.15861677e-01 
 7.25747810e-08 -5.12000000e+02  7.25747810e-08  1.08931735e-07  7.25747810e-08 -6.30511233e-05  7.25747810e-08 -3.63178040e-04  7.25747810e-08 -3.50292323e-06  7.25747810e-08  1.58147109e+00  7.25747810e-08  2.15827838e-01 
 7.28696740e-08 -5.12000000e+02  7.28696740e-08  4.57662770e-07  7.28696740e-08  6.69444267e-05  7.28696740e-08  3.63894894e-04  7.28696740e-08  5.28543239e-06  7.28696740e-08  1.58148641e+00  7.28696740e-08  2.15825064e-01 
 7.34594600e-08 -5.12000000e+02  7.34594600e-08  7.14003007e-08  7.34594600e-08 -6.30949555e-05  7.34594600e-08 -3.63707058e-04  7.34594600e-08 -4.37979251e-06  7.34594600e-08  1.58150779e+00  7.34594600e-08  2.15737341e-01 
 7.44594600e-08 -5.12000000e+02  7.44594600e-08  4.45096769e-07  7.44594600e-08  6.67586669e-05  7.44594600e-08  3.64104400e-04  7.44594600e-08  5.60468606e-06  7.44594600e-08  1.58157916e+00  7.44594600e-08  2.15710213e-01 
 7.54594600e-08 -5.12000000e+02  7.54594600e-08  6.48005919e-08  7.54594600e-08 -6.31771371e-05  7.54594600e-08 -3.63894328e-04  7.54594600e-08 -4.29097785e-06  7.54594600e-08  1.58162788e+00  7.54594600e-08  2.15608891e-01 
 7.64594600e-08 -5.12000000e+02  7.64594600e-08  4.47333036e-07  7.64594600e-08  6.66614370e-05  7.64594600e-08  3.64270828e-04  7.64594600e-08  5.57874994e-06  7.64594600e-08  1.58169479e+00  7.64594600e-08  2.15585917e-01 
 7.74594600e-08 -5.12000000e+02  7.74594600e-08  6.25778404e-08  7.74594600e-08 -6.32233368e-05  7.74594600e-08 -3.64080097e-04  7.74594600e-08 -4.48129666e-06  7.74594600e-08  1.58174088e+00  7.74594600e-08  2.15496644e-01 
 7.84594600e-08 -5.12000000e+02  7.84594600e-08  4.49542305e-07  7.84594600e-08  6.65657480e-05  7.84594600e-08  3.64445393e-04  7.84594600e-08  5.70587655e-06  7.84594600e-08  1.58181068e+00  7.84594600e-08  2.15470015e-01 
 7.94594600e-08 -5.12000000e+02  7.94594600e-08  6.03819350e-08  7.94594600e-08 -6.32672475e-05  7.94594600e-08 -3.64253563e-04  7.94594600e-08 -4.27947025e-06  7.94594600e-08  1.58185443e+00  7.94594600e-08  2.15393371e-01 
 7.98033590e-08 -5.12000000e+02  7.98033590e-08  4.66143036e-07  7.98033590e-08  6.65027153e-05  7.98033590e-08  3.64764651e-04  7.98033590e-08  5.93928026e-06  7.98033590e-08  1.58188319e+00  7.98033590e-08  2.15404158e-01 
 8.00464179e-08 -5.12000000e+02  8.00464179e-08  7.24933825e-08  8.00464179e-08 -9.26469565e-05  8.00464179e-08 -3.72582770e-04  8.00464179e-08 -4.38787613e-06  8.00464179e-08  1.58189084e+00  8.00464179e-08  2.15378961e-01 
 8.02050818e-08 -5.12000000e+02  8.02050818e-08  4.98671377e-07  8.02050818e-08 -5.26067824e-05  8.02050818e-08  3.33174448e-04  8.02050818e-08  5.17313228e-06  8.02050818e-08  1.58190909e+00  8.02050818e-08  2.15391712e-01 
 8.03148215e-08 -5.12000000e+02  8.03148215e-08  8.89891784e-08  8.03148215e-08 -1.03383397e-04  8.03148215e-08 -3.73047587e-04  8.03148215e-08 -4.75507070e-06  8.03148215e-08  1.58190258e+00  8.03148215e-08  2.15371292e-01 
 8.04422130e-08 -5.12000000e+02  8.04422130e-08  5.24361867e-07  8.04422130e-08 -2.59437639e-05  8.04422130e-08  4.33843288e-04  8.04422130e-08  5.63207460e-06  8.04422130e-08  1.58191557e+00  8.04422130e-08  2.15392098e-01 
 8.05624338e-08 -5.12000000e+02  8.05624338e-08  6.99169974e-08  8.05624338e-08 -4.88856086e-05  8.05624338e-08 -9.11398489e-05  8.05624338e-08 -4.48945007e-06  8.05624338e-08  1.58192414e+00  8.05624338e-08  2.15371793e-01 
 8.06303911e-08 -5.12000000e+02  8.06303911e-08  5.86239597e-07  8.06303911e-08  3.52541639e-05  8.06303911e-08  1.32550807e-03  8.06303911e-08  4.47755251e-06  8.06303911e-08  1.58194275e+00  8.06303911e-08  2.15378540e-01 
 8.06866317e-08 -5.12000000e+02  8.06866317e-08  1.05882718e-07  8.06866317e-08 -2.24909438e-05  8.06866317e-08  2.49782153e-03  8.06866317e-08 -6.85683744e-06  8.06866317e-08  1.58194132e+00  8.06866317e-08  2.15365154e-01 
 8.07166249e-08 -5.12000000e+02  8.07166249e-08  7.30521385e-07  8.07166249e-08  4.84229527e-05  8.07166249e-08  4.98213908e-03  8.07166249e-08  6.01413147e-06  8.07166249e-08  1.58195737e+00  8.07166249e-08  2.15379712e-01 
 8.07343373e-08 -5.12000000e+02  8.07343373e-08  3.06901135e-07  8.07343373e-08 -1.47458512e-05  8.07343373e-08  2.94661552e-03  8.07343373e-08 -8.90158682e-06  8.07343373e-08  1.58195456e+00  8.07343373e-08  2.15372927e-01 
 8.07480501e-08 -5.12000000e+02  8.07480501e-08  9.93657728e-07  8.07480501e-08  5.19509953e-05  8.07480501e-08  2.19692186e-03  8.07480501e-08  9.82183767e-06  8.07480501e-08  1.58196112e+00  8.07480501e-08  2.15375108e-01 
 8.07639442e-08 -5.12000000e+02  8.07639442e-08  3.50197818e-07  8.07639442e-08 -9.57303906e-06  8.07639442e-08  1.70457795e-04  8.07639442e-08  1.10754565e-05  8.07639442e-08  1.58195665e+00  8.07639442e-08  2.15387391e-01 
 8.07776115e-08 -5.12000000e+02  8.07776115e-08  9.77447463e-07  8.07776115e-08  5.59108580e-05  8.07776115e-08  1.42963703e-03  8.07776115e-08  1.45339203e-05  8.07776115e-08  1.58197231e+00  8.07776115e-08  2.15405284e-01 
 8.07918413e-08 -5.12000000e+02  8.07918413e-08  4.16898828e-07  8.07918413e-08 -3.65716470e-06  8.07918413e-08 -1.82871547e-04  8.07918413e-08  1.29849258e-05  8.07918413e-08  1.58196917e+00  8.07918413e-08  2.15413496e-01 
 8.08048364e-08 -5.12000000e+02  8.08048364e-08  9.74226405e-07  8.08048364e-08  6.19906662e-05  8.08048364e-08  1.58922464e-03  8.08048364e-08  1.57336472e-05  8.08048364e-08  1.58197809e+00  8.08048364e-08  2.15415692e-01 
 8.08198991e-08 -5.12000000e+02  8.08198991e-08  4.23364421e-07  8.08198991e-08  5.72199854e-06  8.08198991e-08  5.29853965e-05  8.08198991e-08 -2.60797743e-06  8.08198991e-08  1.58195596e+00  8.08198991e-08  2.15385179e-01 
 8.08354817e-08 -5.12000000e+02  8.08354817e-08  8.70794332e-07  8.08354817e-08  6.94223346e-05  8.08354817e-08  1.93783772e-03  8.08354817e-08  1.55038706e-05  8.08354817e-08  1.58196572e+00  8.08354817e-08  2.15358488e-01 
 8.08534100e-08 -5.12000000e+02  8.08534100e-08  3.85421425e-07  8.08534100e-08  9.27181656e-06  8.08534100e-08  1.78180025e-04  8.08534100e-08  3.82240568e-06  8.08534100e-08  1.58196153e+00  8.08534100e-08  2.15338260e-01 
 8.08680585e-08 -5.12000000e+02  8.08680585e-08  8.62262800e-07  8.08680585e-08  6.63844879e-05  8.08680585e-08  1.45114109e-03  8.08680585e-08  5.93897030e-06  8.08680585e-08  1.58197220e+00  8.08680585e-08  2.15337779e-01 
 8.08844372e-08 -5.12000000e+02  8.08844372e-08  4.51630115e-07  8.08844372e-08  5.01369871e-06  8.08844372e-08 -4.61079161e-04  8.08844372e-08  8.50251317e-06  8.08844372e-08  1.58195513e+00  8.08844372e-08  2.15328242e-01 
 8.09014832e-08 -5.12000000e+02  8.09014832e-08  7.79069387e-07  8.09014832e-08  5.93956352e-05  8.09014832e-08  1.15850351e-03  8.09014832e-08  2.98432406e-06  8.09014832e-08  1.58194261e+00  8.09014832e-08  2.15332606e-01 
 8.09194325e-08 -5.12000000e+02  8.09194325e-08  4.43077647e-07  8.09194325e-08 -2.77975982e-06  8.09194325e-08 -7.92152389e-04  8.09194325e-08 -6.51985958e-06  8.09194325e-08  1.58194523e+00  8.09194325e-08  2.15305324e-01 
 8.09356749e-08 -5.12000000e+02  8.09356749e-08  7.71019231e-07  8.09356749e-08  4.94224268e-05  8.09356749e-08  9.50309899e-04  8.09356749e-08  4.01018138e-06  8.09356749e-08  1.58195862e+00  8.09356749e-08  2.15280345e-01 
 8.09591564e-08 -5.12000000e+02  8.09591564e-08  3.87767382e-07  8.09591564e-08 -1.49354750e-05  8.09591564e-08 -8.55021305e-04  8.09591564e-08  7.85843159e-06  8.09591564e-08  1.58195827e+00  8.09591564e-08  2.15235354e-01 
 8.09843166e-08 -5.12000000e+02  8.09843166e-08  6.21304260e-07  8.09843166e-08  3.78537690e-05  8.09843166e-08  8.68304875e-04  8.09843166e-08  1.64180042e-06  8.09843166e-08  1.58195045e+00  8.09843166e-08  2.15284864e-01 
 8.10261696e-08 -5.12000000e+02  8.10261696e-08  2.81015841e-07  8.10261696e-08  7.34368513e-05  8.10261696e-08 -8.56415057e-04  8.10261696e-08  3.04212961e-06  8.10261696e-08  1.58194815e+00  8.10261696e-08  2.15239254e-01 
 8.10623538e-08 -5.12000000e+02  8.10623538e-08  5.37893124e-07  8.10623538e-08  2.06736863e-04  8.10623538e-08  8.54377747e-04  8.10623538e-08 -3.42089577e-06  8.10623538e-08  1.58194756e+00  8.10623538e-08  2.15268366e-01 
 8.10876325e-08 -5.12000000e+02  8.10876325e-08  3.87115832e-07  8.10876325e-08  1.36705370e-04  8.10876325e-08 -8.47898566e-04  8.10876325e-08 -1.45345048e-06  8.10876325e-08  1.58195800e+00  8.10876325e-08  2.15274695e-01 
 8.11158594e-08 -5.12000000e+02  8.11158594e-08  5.78335532e-07  8.11158594e-08  1.41326255e-04  8.11158594e-08  8.43043296e-04  8.11158594e-08 -1.41657343e-05  8.11158594e-08  1.58195840e+00  8.11158594e-08  2.15317317e-01 
 8.11347788e-08 -5.12000000e+02  8.11347788e-08  4.74845685e-07  8.11347788e-08  2.36747321e-04  8.11347788e-08 -8.33358125e-04  8.11347788e-08 -2.81878886e-06  8.11347788e-08  1.58196602e+00  8.11347788e-08  2.15306113e-01 
 8.11566705e-08 -5.12000000e+02  8.11566705e-08  6.34994526e-07  8.11566705e-08  4.34058723e-04  8.11566705e-08  8.36653120e-04  8.11566705e-08  6.18190930e-07  8.11566705e-08  1.58196921e+00  8.11566705e-08  2.15334171e-01 
 8.11851844e-08 -5.12000000e+02  8.11851844e-08  3.75465004e-07  8.11851844e-08  3.81867151e-04  8.11851844e-08 -8.25510378e-04  8.11851844e-08 -5.33165655e-06  8.11851844e-08  1.58197294e+00  8.11851844e-08  2.15317408e-01 
 8.12119447e-08 -5.12000000e+02  8.12119447e-08  5.73687184e-07  8.12119447e-08  4.28689542e-04  8.12119447e-08  8.18542199e-04  8.12119447e-08 -8.47206816e-06  8.12119447e-08  1.58197065e+00  8.12119447e-08  2.15347170e-01 
 8.12340059e-08 -5.12000000e+02  8.12340059e-08  4.45991124e-07  8.12340059e-08  3.37800068e-04  8.12340059e-08 -8.97837965e-04  8.12340059e-08  9.07154207e-08  8.12340059e-08  1.58197415e+00  8.12340059e-08  2.15340998e-01 
 8.12589129e-08 -5.12000000e+02  8.12589129e-08  5.84791094e-07  8.12589129e-08  2.51142177e-04  8.12589129e-08  8.31977048e-04  8.12589129e-08  1.10482055e-06  8.12589129e-08  1.58197344e+00  8.12589129e-08  2.15389039e-01 
 8.12770907e-08 -5.12000000e+02  8.12770907e-08  5.08619369e-07  8.12770907e-08  1.11878737e-04  8.12770907e-08 -6.70282481e-04  8.12770907e-08 -5.99173623e-06  8.12770907e-08  1.58198412e+00  8.12770907e-08  2.15345717e-01 
 8.12993245e-08 -5.12000000e+02  8.12993245e-08  6.13773759e-07  8.12993245e-08  1.12582635e-04  8.12993245e-08  1.03645865e-03  8.12993245e-08 -8.04526991e-06  8.12993245e-08  1.58197953e+00  8.12993245e-08  2.15353583e-01 
 8.13272437e-08 -5.12000000e+02  8.13272437e-08  3.96111264e-07  8.13272437e-08  1.19854943e-05  8.13272437e-08 -3.50884996e-04  8.13272437e-08 -3.06304952e-06  8.13272437e-08  1.58198015e+00  8.13272437e-08  2.15310780e-01 
 8.13608408e-08 -5.12000000e+02  8.13608408e-08  5.12582265e-07  8.13608408e-08  5.91029584e-05  8.13608408e-08  2.16376266e-03  8.13608408e-08  4.44427815e-06  8.13608408e-08  1.58197938e+00  8.13608408e-08  2.15359600e-01 
 8.13877262e-08 -5.12000000e+02  8.13877262e-08  4.09766935e-07  8.13877262e-08 -1.61846831e-05  8.13877262e-08  2.70011512e-03  8.13877262e-08 -7.14004095e-06  8.13877262e-08  1.58198115e+00  8.13877262e-08  2.15324606e-01 
 8.14124974e-08 -5.12000000e+02  8.14124974e-08  5.71480057e-07  8.14124974e-08  4.90968690e-05  8.14124974e-08  3.12846275e-03  8.14124974e-08 -2.54945443e-06  8.14124974e-08  1.58198373e+00  8.14124974e-08  2.15340044e-01 
 8.14364278e-08 -5.12000000e+02  8.14364278e-08  4.41140045e-07  8.14364278e-08 -2.11957292e-05  8.14364278e-08 -3.92774931e-04  8.14364278e-08 -1.20707965e-05  8.14364278e-08  1.58198402e+00  8.14364278e-08  2.15288693e-01 
 8.14582893e-08 -5.12000000e+02  8.14582893e-08  6.14044337e-07  8.14582893e-08  4.57852576e-05  8.14582893e-08  9.90153800e-04  8.14582893e-08  6.80579086e-06  8.14582893e-08  1.58199089e+00  8.14582893e-08  2.15313682e-01 
 8.14805735e-08 -5.12000000e+02  8.14805735e-08  4.29917311e-07  8.14805735e-08 -2.40753239e-05  8.14805735e-08 -9.63559453e-04  8.14805735e-08 -8.36472150e-07  8.14805735e-08  1.58199072e+00  8.14805735e-08  2.15333671e-01 
 8.15068689e-08 -5.12000000e+02  8.15068689e-08  6.23009586e-07  8.15068689e-08  4.30923834e-05  8.15068689e-08  9.74152471e-04  8.15068689e-08  3.41572831e-06  8.15068689e-08  1.58198784e+00  8.15068689e-08  2.15383835e-01 
 8.15587894e-08 -5.12000000e+02  8.15587894e-08  2.18827240e-07  8.15587894e-08 -2.68992473e-05  8.15587894e-08 -9.72403309e-04  8.15587894e-08 -6.81119964e-06  8.15587894e-08  1.58197996e+00  8.15587894e-08  2.15320041e-01 
 8.16626305e-08 -5.12000000e+02  8.16626305e-08  4.73835731e-07  8.16626305e-08  3.85606469e-05  8.16626305e-08  9.72817328e-04  8.16626305e-08  7.57367523e-06  8.16626305e-08  1.58198389e+00  8.16626305e-08  2.15333678e-01 
 8.18703126e-08 -5.12000000e+02  8.18703126e-08  1.11522103e-07  8.18703126e-08 -3.16020928e-05  8.18703126e-08 -9.72207480e-04  8.18703126e-08 -6.58355828e-06  8.18703126e-08  1.58198636e+00  8.18703126e-08  2.15285954e-01 
 8.22074552e-08 -5.12000000e+02  8.22074552e-08  4.39871750e-07  8.22074552e-08  3.54997725e-05  8.22074552e-08  9.72613685e-04  8.22074552e-08  6.83220671e-06  8.22074552e-08  1.58200504e+00  8.22074552e-08  2.15279117e-01 
 8.26158505e-08 -5.12000000e+02  8.26158505e-08  8.99493606e-08  8.26158505e-08 -3.24440911e-05  8.26158505e-08 -9.72162988e-04  8.26158505e-08 -5.66354074e-06  8.26158505e-08  1.58202259e+00  8.26158505e-08  2.15261565e-01 
 8.32780121e-08 -5.12000000e+02  8.32780121e-08  4.35351668e-07  8.32780121e-08  3.54955606e-05  8.32780121e-08  9.72484297e-04  8.32780121e-08  7.14197614e-06  8.32780121e-08  1.58205510e+00  8.32780121e-08  2.15247098e-01 
 8.42780121e-08 -5.12000000e+02  8.42780121e-08  7.77388926e-08  8.42780121e-08 -3.24849954e-05  8.42780121e-08 -9.72148150e-04  8.42780121e-08 -5.75930675e-06  8.42780121e-08  1.58209616e+00  8.42780121e-08  2.15187277e-01 
 8.52780121e-08 -5.12000000e+02  8.52780121e-08  4.34552561e-07  8.52780121e-08  3.54483594e-05  8.52780121e-08  9.72409489e-04  8.52780121e-08  6.63278179e-06  8.52780121e-08  1.58214117e+00  8.52780121e-08  2.15169367e-01 
 8.62780121e-08 -5.12000000e+02  8.62780121e-08  7.51956240e-08  8.62780121e-08 -3.25219000e-05  8.62780121e-08 -9.72118171e-04  8.62780121e-08 -5.74341986e-06  8.62780121e-08  1.58218033e+00  8.62780121e-08  2.15119456e-01 
 8.72780121e-08 -5.12000000e+02  8.72780121e-08  4.37093249e-07  8.72780121e-08  3.54122461e-05  8.72780121e-08  9.72343460e-04  8.72780121e-08  6.75355255e-06  8.72780121e-08  1.58222420e+00  8.72780121e-08  2.15104810e-01 
 8.82780121e-08 -5.12000000e+02  8.82780121e-08  7.26575385e-08  8.82780121e-08 -3.25610796e-05  8.82780121e-08 -9.72076373e-04  8.82780121e-08 -5.76964816e-06  8.82780121e-08  1.58226558e+00  8.82780121e-08  2.15049737e-01 
 8.92780121e-08 -5.12000000e+02  8.92780121e-08  4.39628728e-07  8.92780121e-08  3.53629264e-05  8.92780121e-08  9.72299861e-04  8.92780121e-08  6.59790294e-06  8.92780121e-08  1.58231302e+00  8.92780121e-08  2.15041247e-01 
 9.02780121e-08 -5.12000000e+02  9.02780121e-08  7.01247141e-08  9.02780121e-08 -3.26052179e-05  9.02780121e-08 -9.72028548e-04  9.02780121e-08 -5.51756288e-06  9.02780121e-08  1.58234991e+00  9.02780121e-08  2.14997952e-01 
 9.08692486e-08 -5.12000000e+02  9.08692486e-08  4.47543160e-07  9.08692486e-08  3.53284270e-05  9.08692486e-08  9.72210402e-04  9.08692486e-08  6.76897988e-06  9.08692486e-08  1.58237386e+00  9.08692486e-08  2.15001219e-01 
 9.11141357e-08 -5.12000000e+02  9.11141357e-08  8.20760366e-08  9.11141357e-08 -2.59358095e-06  9.11141357e-08 -9.63329873e-04  9.11141357e-08 -5.59405342e-06  9.11141357e-08  1.58238353e+00  9.11141357e-08  2.14959862e-01 
 9.14254483e-08 -5.12000000e+02  9.14254483e-08  4.66611975e-07  9.14254483e-08  8.07041303e-05  9.14254483e-08  1.03602128e-03  9.14254483e-08  5.96226033e-06  9.14254483e-08  1.58239633e+00  9.14254483e-08  2.14974793e-01 
 9.14713445e-08 -5.12000000e+02  9.14713445e-08  3.11293319e-07  9.14713445e-08  6.25523520e-05  9.14713445e-08  9.10116401e-05  9.14713445e-08 -1.16867779e-06  9.14713445e-08  1.58240742e+00  9.14713445e-08  2.14956138e-01 
 9.15631368e-08 -5.12000000e+02  9.15631368e-08  3.25566977e-07  9.15631368e-08  8.60446492e-05  9.15631368e-08  1.04581916e-04  9.15631368e-08 -9.26630084e-07  9.15631368e-08  1.58241288e+00  9.15631368e-08  2.14948391e-01 
 9.16089676e-08 -5.12000000e+02  9.16089676e-08  3.79000830e-07  9.16089676e-08  8.50372782e-05  9.16089676e-08  8.24310690e-05  9.16089676e-08 -2.24903527e-06  9.16089676e-08  1.58242788e+00  9.16089676e-08  2.14959413e-01 
 9.16433539e-08 -5.12000000e+02  9.16433539e-08  4.39365696e-07  9.16433539e-08  1.46700698e-04  9.16433539e-08  1.23353639e-04  9.16433539e-08 -3.35837489e-06  9.16433539e-08  1.58243396e+00  9.16433539e-08  2.14963236e-01 
 9.16693387e-08 -5.12000000e+02  9.16693387e-08  4.82827926e-07  9.16693387e-08  2.46918612e-04  9.16693387e-08  4.18158922e-04  9.16693387e-08  2.36600121e-06  9.16693387e-08  1.58244688e+00  9.16693387e-08  2.14997279e-01 
 9.16966453e-08 -5.12000000e+02  9.16966453e-08  4.86961500e-07  9.16966453e-08  4.08098403e-04  9.16966453e-08  9.58814608e-04  9.16966453e-08 -1.50763603e-06  9.16966453e-08  1.58244792e+00  9.16966453e-08  2.15033097e-01 
 9.17190700e-08 -5.12000000e+02  9.17190700e-08  5.19297433e-07  9.17190700e-08  5.43367325e-04  9.17190700e-08  1.53473177e-03  9.17190700e-08 -4.76333518e-06  9.17190700e-08  1.58245916e+00  9.17190700e-08  2.15023502e-01 
 9.17326240e-08 -5.12000000e+02  9.17326240e-08  7.00777488e-07  9.17326240e-08  3.60060779e-04  9.17326240e-08  1.64268508e-03  9.17326240e-08 -2.70332465e-06  9.17326240e-08  1.58248198e+00  9.17326240e-08  2.15012185e-01 
 9.17484319e-08 -5.12000000e+02  9.17484319e-08  6.48994765e-07  9.17484319e-08  2.64892008e-04  9.17484319e-08  5.95825603e-04  9.17484319e-08 -2.34311646e-06  9.17484319e-08  1.58247469e+00  9.17484319e-08  2.14993913e-01 
 9.17652537e-08 -5.12000000e+02  9.17652537e-08  6.10982632e-07  9.17652537e-08  2.47244416e-04  9.17652537e-08  2.42695093e-03  9.17652537e-08 -9.62529200e-06  9.17652537e-08  1.58246429e+00  9.17652537e-08  2.14993812e-01 
 9.17822977e-08 -5.12000000e+02  9.17822977e-08  6.21383832e-07  9.17822977e-08  2.91001775e-04  9.17822977e-08  4.09106648e-03  9.17822977e-08 -4.03497996e-06  9.17822977e-08  1.58247035e+00  9.17822977e-08  2.15036481e-01 
